Wavelength (nm)	Rel. spec. intensity (dB)
842.349	29.741
842.372	29.703
842.396	29.652
842.419	29.628
842.442	29.661
842.466	29.689
842.489	29.708
842.512	29.741
842.536	29.708
842.559	29.750
842.582	29.708
842.606	29.680
842.629	29.703
842.652	29.713
842.676	29.731
842.699	29.713
842.722	29.666
842.746	29.699
842.769	29.685
842.792	29.671
842.815	29.713
842.839	29.628
842.862	29.652
842.885	29.736
842.909	29.786
842.932	29.699
842.955	29.703
842.978	29.699
843.002	29.745
843.025	29.699
843.048	29.791
843.071	29.741
843.095	29.671
843.118	29.722
843.141	29.633
843.164	29.652
843.188	29.661
843.211	29.727
843.234	29.713
843.257	29.713
843.281	29.717
843.304	29.713
843.327	29.754
843.350	29.782
843.374	29.689
843.397	29.624
843.420	29.750
843.443	29.773
843.466	29.754
843.490	29.759
843.513	29.731
843.536	29.666
843.559	29.652
843.582	29.708
843.606	29.675
843.629	29.791
843.652	29.708
843.675	29.782
843.698	29.699
843.721	29.713
843.745	29.661
843.768	29.647
843.791	29.689
843.814	29.731
843.837	29.703
843.860	29.685
843.883	29.736
843.907	29.768
843.930	29.671
843.953	29.694
843.976	29.685
843.999	29.675
844.022	29.689
844.045	29.699
844.069	29.713
844.092	29.773
844.115	29.685
844.138	29.661
844.161	29.708
844.184	29.759
844.207	29.736
844.230	29.703
844.253	29.764
844.276	29.750
844.300	29.754
844.323	29.703
844.346	29.614
844.369	29.731
844.392	29.680
844.415	29.708
844.438	29.791
844.461	29.786
844.484	29.638
844.507	29.741
844.530	29.754
844.553	29.759
844.576	29.717
844.599	29.685
844.622	29.727
844.645	29.754
844.668	29.731
844.692	29.741
844.715	29.671
844.738	29.717
844.761	29.694
844.784	29.694
844.807	29.759
844.830	29.722
844.853	29.768
844.876	29.727
844.899	29.777
844.922	29.689
844.945	29.661
844.968	29.694
844.991	29.694
845.014	29.699
845.037	29.703
845.060	29.731
845.083	29.750
845.105	29.703
845.128	29.717
845.151	29.786
845.174	29.786
845.197	29.717
845.220	29.680
845.243	29.773
845.266	29.694
845.289	29.661
845.312	29.777
845.335	29.759
845.358	29.652
845.381	29.741
845.404	29.731
845.427	29.805
845.450	29.741
845.473	29.800
845.496	29.759
845.518	29.666
845.541	29.759
845.564	29.717
845.587	29.703
845.610	29.680
845.633	29.773
845.656	29.754
845.679	29.764
845.702	29.777
845.724	29.689
845.747	29.689
845.770	29.731
845.793	29.741
845.816	29.722
845.839	29.713
845.862	29.614
845.885	29.694
845.907	29.671
845.930	29.661
845.953	29.619
845.976	29.741
845.999	29.741
846.022	29.745
846.045	29.722
846.067	29.773
846.090	29.754
846.113	29.759
846.136	29.731
846.159	29.703
846.182	29.675
846.204	29.759
846.227	29.685
846.250	29.731
846.273	29.717
846.296	29.731
846.318	29.717
846.341	29.827
846.364	29.731
846.387	29.795
846.410	29.666
846.432	29.759
846.455	29.741
846.478	29.713
846.501	29.699
846.523	29.814
846.546	29.731
846.569	29.671
846.592	29.768
846.614	29.736
846.637	29.713
846.660	29.694
846.683	29.773
846.705	29.717
846.728	29.703
846.751	29.823
846.774	29.827
846.796	29.961
846.819	30.314
846.842	31.511
846.865	32.458
846.887	33.149
846.910	33.674
846.933	34.509
846.955	35.000
846.978	35.131
847.001	34.824
847.023	33.753
847.046	32.751
847.069	31.495
847.092	30.492
847.114	29.978
847.137	29.894
847.160	29.814
847.182	29.795
847.205	29.974
847.228	31.000
847.250	32.584
847.273	34.106
847.296	35.536
847.318	36.860
847.341	37.354
847.364	36.782
847.386	35.438
847.409	34.158
847.432	33.081
847.454	31.685
847.477	30.504
847.499	29.991
847.522	29.850
847.545	29.899
847.567	30.039
847.590	30.813
847.613	32.036
847.635	32.989
847.658	33.113
847.680	31.931
847.703	30.697
847.726	29.987
847.748	29.754
847.771	29.694
847.793	29.680
847.816	29.722
847.839	29.786
847.861	29.727
847.884	29.773
847.906	29.836
847.929	29.736
847.951	29.754
847.974	29.754
847.996	29.731
848.019	29.754
848.042	29.722
848.064	29.689
848.087	29.764
848.109	29.782
848.132	29.713
848.154	29.661
848.177	29.736
848.199	29.680
848.222	29.741
848.244	29.759
848.267	29.782
848.289	29.736
848.312	29.754
848.334	29.759
848.357	29.666
848.379	29.713
848.402	29.727
848.424	29.713
848.447	29.773
848.469	29.727
848.492	29.731
848.514	29.764
848.537	29.699
848.559	29.694
848.582	29.717
848.604	29.795
848.627	29.741
848.649	29.638
848.672	29.727
848.694	29.750
848.717	29.731
848.739	29.731
848.761	29.731
848.784	29.680
848.806	29.713
848.829	29.652
848.851	29.773
848.874	29.754
848.896	29.731
848.919	29.671
848.941	29.741
848.963	29.727
848.986	29.675
849.008	29.745
849.031	29.680
849.053	29.764
849.075	29.713
849.098	29.708
849.120	29.768
849.143	29.699
849.165	29.703
849.187	29.773
849.210	29.745
849.232	29.731
849.254	29.736
849.277	29.736
849.299	29.736
849.322	29.731
849.344	29.722
849.366	29.694
849.389	29.680
849.411	29.727
849.433	29.727
849.456	29.713
849.478	29.703
849.500	29.713
849.523	29.741
849.545	29.745
849.567	29.741
849.590	29.708
849.612	29.703
849.634	29.666
849.657	29.736
849.679	29.703
849.701	29.745
849.724	29.671
849.746	29.666
849.768	29.689
849.791	29.708
849.813	29.685
849.835	29.708
849.857	29.800
849.880	29.736
849.902	29.777
849.924	29.764
849.946	29.703
849.969	29.727
849.991	29.671
850.013	29.713
850.036	29.800
850.058	29.759
850.080	29.699
850.102	29.745
850.125	29.713
850.147	29.795
850.169	29.731
850.191	29.727
850.214	29.786
850.236	29.680
850.258	29.741
850.280	29.694
850.302	29.745
850.325	29.745
850.347	29.666
850.369	29.661
850.391	29.736
850.414	29.741
850.436	29.722
850.458	29.731
850.480	29.764
850.502	29.759
850.524	29.722
850.547	29.689
850.569	29.717
850.591	29.713
850.613	29.727
850.635	29.754
850.658	29.741
850.680	29.768
850.702	29.717
850.724	29.736
850.746	29.689
850.768	29.680
850.791	29.731
850.813	29.708
850.835	29.795
850.857	29.809
850.879	29.713
850.901	29.661
850.923	29.731
850.945	29.736
850.968	29.717
850.990	29.694
851.012	29.745
851.034	29.699
851.056	29.795
851.078	29.708
851.100	29.647
851.122	29.671
851.144	29.661
851.167	29.680
851.189	29.685
851.211	29.727
851.233	29.809
851.255	29.782
851.277	29.671
851.299	29.689
851.321	29.713
851.343	29.805
851.365	29.750
851.387	29.699
851.409	29.750
851.431	29.727
851.453	29.741
851.476	29.703
851.498	29.754
851.520	29.759
851.542	29.736
851.564	29.699
851.586	29.759
851.608	29.750
851.630	29.736
851.652	29.689
851.674	29.694
851.696	29.657
851.718	29.685
851.740	29.713
851.762	29.777
851.784	29.745
851.806	29.717
851.828	29.731
851.850	29.713
851.872	29.782
851.894	29.764
851.916	29.754
851.938	29.759
851.960	29.745
851.982	29.741
852.004	29.694
852.026	29.741
852.048	29.703
852.070	29.782
852.092	29.741
852.114	29.703
852.135	29.666
852.157	29.750
852.179	29.731
852.201	29.736
852.223	29.694
852.245	29.689
852.267	29.657
852.289	29.731
852.311	29.713
852.333	29.699
