Wavelength (nm)	Rel. spec. intensity (dB)
849.254	29.768
849.277	29.768
849.299	29.736
849.322	29.750
849.344	29.727
849.366	29.736
849.389	29.703
849.411	29.773
849.433	29.759
849.456	29.786
849.478	29.685
849.500	29.777
849.523	29.777
849.545	29.717
849.567	29.745
849.590	29.782
849.612	29.777
849.634	29.800
849.657	29.713
849.679	29.717
849.701	29.713
849.724	29.736
849.746	29.800
849.768	29.791
849.791	29.786
849.813	29.791
849.835	29.722
849.857	29.773
849.880	29.795
849.902	29.773
849.924	29.722
849.946	29.759
849.969	29.731
849.991	29.689
850.013	29.805
850.036	29.786
850.058	29.736
850.080	29.699
850.102	29.689
850.125	29.827
850.147	29.750
850.169	29.759
850.191	29.800
850.214	29.795
850.236	29.777
850.258	29.805
850.280	29.694
850.302	29.731
850.325	29.759
850.347	29.773
850.369	29.708
850.391	29.731
850.414	29.800
850.436	29.727
850.458	29.731
850.480	29.764
850.502	29.768
850.524	29.722
850.547	29.750
850.569	29.722
850.591	29.786
850.613	29.777
850.635	29.764
850.658	29.741
850.680	29.809
850.702	29.773
850.724	29.741
850.746	29.782
850.768	29.773
850.791	29.722
850.813	29.745
850.835	29.795
850.857	29.782
850.879	29.886
850.901	29.805
850.923	29.773
850.945	29.773
850.968	29.708
850.990	29.795
851.012	29.745
851.034	29.759
851.056	29.805
851.078	29.782
851.100	29.814
851.122	29.759
851.144	29.782
851.167	29.768
851.189	29.754
851.211	29.717
851.233	29.764
851.255	29.727
851.277	29.754
851.299	29.736
851.321	29.745
851.343	29.818
851.365	29.800
851.387	29.823
851.409	29.818
851.431	29.759
851.453	29.768
851.476	29.750
851.498	29.809
851.520	29.736
851.542	29.791
851.564	29.754
851.586	29.717
851.608	29.850
851.630	29.845
851.652	29.717
851.674	29.717
851.696	29.795
851.718	29.750
851.740	29.773
851.762	29.727
851.784	29.805
851.806	29.703
851.828	29.782
851.850	29.750
851.872	29.786
851.894	29.745
851.916	29.722
851.938	29.722
851.960	29.841
851.982	29.773
852.004	29.773
852.026	29.717
852.048	29.657
852.070	29.722
852.092	29.754
852.114	29.800
852.135	29.791
852.157	29.736
852.179	29.773
852.201	29.741
852.223	29.717
852.245	29.754
852.267	29.754
852.289	29.800
852.311	29.764
852.333	29.777
852.355	29.722
852.377	29.795
852.399	29.727
852.421	29.741
852.442	29.759
852.464	29.750
852.486	29.750
852.508	29.800
852.530	29.736
852.552	29.741
852.574	29.786
852.596	29.782
852.618	29.800
852.639	29.777
852.661	29.836
852.683	29.791
852.705	29.699
852.727	29.671
852.749	29.768
852.771	29.708
852.792	29.727
852.814	29.759
852.836	29.750
852.858	29.777
852.880	29.768
852.902	29.800
852.924	29.786
852.945	29.722
852.967	29.717
852.989	29.731
853.011	29.699
853.033	29.666
853.055	29.764
853.076	29.791
853.098	29.773
853.120	29.845
853.142	29.768
853.164	29.768
853.185	29.768
853.207	29.800
853.229	29.773
853.251	29.814
853.272	29.713
853.294	29.814
853.316	29.791
853.338	29.708
853.360	29.736
853.381	29.759
853.403	29.699
853.425	29.823
853.447	29.745
853.468	29.745
853.490	29.791
853.512	29.685
853.534	29.786
853.555	29.795
853.577	29.722
853.599	29.759
853.620	29.722
853.642	29.764
853.664	29.759
853.686	29.859
853.707	29.791
853.729	29.782
853.751	29.809
853.773	29.827
853.794	29.814
853.816	29.863
853.838	29.809
853.859	29.827
853.881	29.699
853.903	29.800
853.924	29.814
853.946	29.823
853.968	29.850
853.989	29.795
854.011	29.754
854.033	29.777
854.054	29.666
854.076	29.791
854.098	29.754
854.119	29.854
854.141	30.228
854.163	31.232
854.184	32.388
854.206	33.668
854.228	34.780
854.249	35.347
854.271	34.799
854.292	33.547
854.314	32.335
854.336	30.633
854.357	29.996
854.379	29.894
854.401	29.841
854.422	29.868
854.444	29.805
854.465	29.818
854.487	29.777
854.509	29.800
854.530	29.741
854.552	29.727
854.573	29.754
854.595	29.786
854.617	29.868
854.638	29.841
854.660	29.791
854.681	29.809
854.703	29.795
854.724	29.795
854.746	29.863
854.767	29.786
854.789	29.809
854.811	29.777
854.832	29.759
854.854	29.741
854.875	29.713
854.897	29.759
854.918	29.754
854.940	29.773
854.961	29.814
854.983	29.722
855.004	29.754
855.026	29.827
855.047	29.768
855.069	29.745
855.090	29.657
855.112	29.791
855.133	29.795
855.155	29.777
855.176	29.800
855.198	29.791
855.219	29.731
855.241	29.773
855.262	29.841
855.284	29.795
855.305	29.832
855.327	29.754
855.348	29.791
855.370	29.845
855.391	29.786
855.413	29.694
855.434	29.823
855.456	29.795
855.477	29.741
855.498	29.777
855.520	29.786
855.541	29.741
855.563	29.805
855.584	29.777
855.606	29.777
855.627	29.805
855.648	29.741
855.670	29.773
855.691	29.791
855.713	29.731
855.734	29.759
855.755	29.759
855.777	29.731
855.798	29.773
855.820	29.805
855.841	29.809
855.862	29.912
855.884	29.814
855.905	29.708
855.927	29.727
855.948	29.727
855.969	29.800
855.991	29.795
856.012	29.823
856.033	29.805
856.055	29.768
856.076	29.750
856.098	29.759
856.119	29.750
856.140	29.764
856.162	29.786
856.183	29.736
856.204	29.764
856.226	29.773
856.247	29.782
856.268	29.777
856.290	29.754
856.311	29.777
856.332	29.722
856.354	29.703
856.375	29.791
856.396	29.750
856.417	29.868
856.439	29.745
856.460	29.759
856.481	29.703
856.503	29.768
856.524	29.741
856.545	29.773
856.566	29.832
856.588	29.845
856.609	29.786
856.630	29.777
856.652	29.773
856.673	29.731
856.694	29.741
856.715	29.745
856.737	29.818
856.758	29.777
856.779	29.741
856.800	29.722
856.822	29.795
856.843	29.786
856.864	29.754
856.885	29.777
856.907	29.768
856.928	29.750
856.949	29.809
856.970	29.809
856.991	29.708
857.013	29.777
857.034	29.768
857.055	29.773
857.076	29.782
857.097	29.786
857.119	29.703
857.140	29.736
857.161	29.722
857.182	29.750
857.203	29.768
857.225	29.814
857.246	29.859
857.267	29.859
857.288	29.782
857.309	29.736
857.330	29.814
857.352	29.836
857.373	29.805
857.394	29.818
857.415	29.713
857.436	29.666
857.457	29.745
857.479	29.768
857.500	29.708
857.521	29.791
857.542	29.805
857.563	29.754
857.584	29.764
857.605	29.708
857.626	29.722
857.648	29.713
857.669	29.731
857.690	29.841
857.711	29.741
857.732	29.699
857.753	29.685
857.774	29.741
857.795	29.782
857.816	29.745
857.837	29.809
857.859	29.795
857.880	29.795
857.901	29.736
857.922	29.731
857.943	29.727
857.964	29.777
857.985	29.850
858.006	29.773
858.027	29.754
858.048	29.786
858.069	29.680
858.090	29.759
858.111	29.768
858.132	29.782
858.153	29.750
858.174	29.708
858.195	29.745
858.216	29.832
858.237	29.759
858.258	29.832
858.279	29.759
858.300	29.736
858.321	29.791
858.342	29.713
858.363	29.741
858.384	29.754
858.406	29.713
858.426	29.731
858.447	29.689
858.468	29.786
858.489	29.800
858.510	29.694
858.531	29.731
858.552	29.827
858.573	29.773
858.594	29.759
858.615	29.777
858.636	29.773
858.657	29.713
858.678	29.836
858.699	29.809
858.720	29.741
858.741	29.694
858.762	29.703
858.783	29.717
858.804	29.703
858.825	29.773
858.846	29.805
858.867	29.750
858.888	29.795
858.908	29.768
858.929	29.854
858.950	29.782
858.971	29.750
858.992	29.773
859.013	29.727
859.034	29.703
859.055	29.823
859.076	29.741
859.097	29.832
859.117	29.768
859.138	29.768
859.159	29.731
859.180	29.736
859.201	29.777
859.222	29.699
859.243	29.727
