Wavelength (nm)	Rel. spec. intensity (dB)
844.991	29.708
845.014	29.750
845.037	29.689
845.060	29.652
845.083	29.708
845.105	29.657
845.128	29.731
845.151	29.736
845.174	29.786
845.197	29.600
845.220	29.713
845.243	29.685
845.266	29.699
845.289	29.689
845.312	29.657
845.335	29.689
845.358	29.671
845.381	29.741
845.404	29.703
845.427	29.759
845.450	29.647
845.473	29.708
845.496	29.727
845.518	29.703
845.541	29.727
845.564	29.731
845.587	29.708
845.610	29.773
845.633	29.773
845.656	29.750
845.679	29.680
845.702	29.699
845.724	29.708
845.747	29.759
845.770	29.750
845.793	29.736
845.816	29.741
845.839	29.741
845.862	29.731
845.885	29.741
845.907	29.675
845.930	29.768
845.953	29.786
845.976	29.671
845.999	29.680
846.022	29.741
846.045	29.671
846.067	29.731
846.090	29.759
846.113	29.713
846.136	29.764
846.159	29.768
846.182	29.731
846.204	29.736
846.227	29.750
846.250	29.703
846.273	29.699
846.296	29.671
846.318	29.754
846.341	29.689
846.364	29.699
846.387	29.628
846.410	29.552
846.432	29.671
846.455	29.736
846.478	29.661
846.501	29.671
846.523	29.680
846.546	29.750
846.569	29.773
846.592	29.671
846.614	29.722
846.637	29.694
846.660	29.717
846.683	29.713
846.705	29.764
846.728	29.680
846.751	29.727
846.774	29.689
846.796	29.708
846.819	29.638
846.842	29.694
846.865	29.731
846.887	29.827
846.910	29.675
846.933	29.764
846.955	29.661
846.978	29.703
847.001	29.685
847.023	29.708
847.046	29.713
847.069	29.699
847.092	29.750
847.114	29.750
847.137	29.741
847.160	29.745
847.182	29.666
847.205	29.694
847.228	29.754
847.250	29.722
847.273	29.764
847.296	29.638
847.318	29.703
847.341	29.703
847.364	29.717
847.386	29.713
847.409	29.782
847.432	29.741
847.454	29.750
847.477	29.713
847.499	29.689
847.522	29.657
847.545	29.754
847.567	29.759
847.590	29.699
847.613	29.764
847.635	29.768
847.658	29.661
847.680	29.731
847.703	29.680
847.726	29.689
847.748	29.717
847.771	29.736
847.793	29.708
847.816	29.652
847.839	29.699
847.861	29.741
847.884	29.717
847.906	29.657
847.929	29.717
847.951	29.759
847.974	29.708
847.996	29.727
848.019	29.786
848.042	29.703
848.064	29.768
848.087	29.717
848.109	29.759
848.132	29.750
848.154	29.934
848.177	29.983
848.199	30.469
848.222	31.129
848.244	31.729
848.267	31.535
848.289	30.477
848.312	29.996
848.334	29.823
848.357	29.800
848.379	29.708
848.402	29.708
848.424	29.717
848.447	29.764
848.469	29.791
848.492	29.680
848.514	29.699
848.537	29.741
848.559	29.675
848.582	29.754
848.604	29.689
848.627	29.731
848.649	29.671
848.672	29.708
848.694	29.782
848.717	29.805
848.739	29.750
848.761	29.814
848.784	30.017
848.806	30.453
848.829	31.202
848.851	31.861
848.874	32.755
848.896	32.819
848.919	31.694
848.941	30.645
848.963	30.228
848.986	29.939
849.008	29.854
849.031	29.832
849.053	29.841
849.075	29.777
849.098	29.818
849.120	29.773
849.143	29.863
849.165	30.133
849.187	30.569
849.210	31.408
849.232	32.603
849.254	33.888
849.277	35.373
849.299	36.336
849.322	36.556
849.344	36.617
849.366	36.180
849.389	36.109
849.411	36.945
849.433	37.727
849.456	37.887
849.478	37.809
849.500	37.113
849.523	35.628
849.545	34.293
849.567	33.107
849.590	31.708
849.612	30.641
849.634	30.162
849.657	29.952
849.679	29.908
849.701	29.894
849.724	29.827
849.746	29.872
849.768	29.969
849.791	30.290
849.813	30.856
849.835	31.813
849.857	33.251
849.880	34.793
849.902	36.655
849.924	37.767
849.946	38.259
849.969	38.807
849.991	38.656
850.013	38.530
850.036	37.669
850.058	36.153
850.080	34.817
850.102	33.237
850.125	31.345
850.147	30.199
850.169	29.943
850.191	29.823
850.214	29.872
850.236	29.930
850.258	29.827
850.280	29.786
850.302	29.805
850.325	29.786
850.347	29.899
850.369	30.162
850.391	30.980
850.414	31.915
850.436	32.967
850.458	33.959
850.480	34.052
850.502	33.066
850.524	31.520
850.547	30.386
850.569	29.912
850.591	29.854
850.613	29.823
850.635	29.782
850.658	29.786
850.680	29.754
850.702	29.814
850.724	29.731
850.746	29.764
850.768	29.699
850.791	29.764
850.813	29.745
850.835	29.741
850.857	29.764
850.879	29.703
850.901	29.694
850.923	29.741
850.945	29.643
850.968	29.722
850.990	29.768
851.012	29.759
851.034	29.722
851.056	29.689
851.078	29.741
851.100	29.731
851.122	29.795
851.144	29.731
851.167	29.773
851.189	29.754
851.211	29.750
851.233	29.713
851.255	29.736
851.277	29.703
851.299	29.736
851.321	29.759
851.343	29.731
851.365	29.699
851.387	29.768
851.409	29.754
851.431	29.731
851.453	29.685
851.476	29.736
851.498	29.661
851.520	29.727
851.542	29.745
851.564	29.717
851.586	29.689
851.608	29.750
851.630	29.708
851.652	29.652
851.674	29.713
851.696	29.713
851.718	29.736
851.740	29.685
851.762	29.736
851.784	29.764
851.806	29.708
851.828	29.731
851.850	29.694
851.872	29.703
851.894	29.671
851.916	29.703
851.938	29.717
851.960	29.791
851.982	29.759
852.004	29.759
852.026	29.814
852.048	29.863
852.070	29.795
852.092	29.727
852.114	29.713
852.135	29.731
852.157	29.713
852.179	29.754
852.201	29.841
852.223	29.703
852.245	29.731
852.267	29.759
852.289	29.722
852.311	29.713
852.333	29.736
852.355	29.694
852.377	29.708
852.399	29.736
852.421	29.754
852.442	29.727
852.464	29.750
852.486	29.722
852.508	29.773
852.530	29.694
852.552	29.727
852.574	29.717
852.596	29.727
852.618	29.680
852.639	29.768
852.661	29.741
852.683	29.666
852.705	29.754
852.727	29.685
852.749	29.694
852.771	29.800
852.792	29.777
852.814	29.717
852.836	29.727
852.858	29.750
852.880	29.800
852.902	29.750
852.924	29.703
852.945	29.694
852.967	29.727
852.989	29.717
853.011	29.736
853.033	29.731
853.055	29.731
853.076	29.731
853.098	29.647
853.120	29.768
853.142	29.777
853.164	29.727
853.185	29.694
853.207	29.754
853.229	29.703
853.251	29.722
853.272	29.699
853.294	29.727
853.316	29.689
853.338	29.754
853.360	29.791
853.381	29.689
853.403	29.717
853.425	29.638
853.447	29.754
853.468	29.722
853.490	29.745
853.512	29.699
853.534	29.731
853.555	29.666
853.577	29.643
853.599	29.661
853.620	29.595
853.642	29.782
853.664	29.754
853.686	29.750
853.707	29.708
853.729	29.750
853.751	29.750
853.773	29.671
853.794	29.661
853.816	29.666
853.838	29.750
853.859	29.680
853.881	29.685
853.903	29.764
853.924	29.713
853.946	29.727
853.968	29.699
853.989	29.699
854.011	29.661
854.033	29.786
854.054	29.722
854.076	29.708
854.098	29.689
854.119	29.768
854.141	29.750
854.163	29.708
854.184	29.605
854.206	29.661
854.228	29.722
854.249	29.745
854.271	29.777
854.292	29.741
854.314	29.713
854.336	29.694
854.357	29.722
854.379	29.685
854.401	29.657
854.422	29.685
854.444	29.643
854.465	29.713
854.487	29.768
854.509	29.736
854.530	29.680
854.552	29.722
854.573	29.708
854.595	29.736
854.617	29.699
854.638	29.795
854.660	29.717
854.681	29.727
854.703	29.722
854.724	29.643
854.746	29.736
854.767	29.777
854.789	29.694
854.811	29.722
854.832	29.750
854.854	29.768
854.875	29.685
854.897	29.768
854.918	29.717
854.940	29.722
854.961	29.652
