Wavelength (nm)	Rel. spec. intensity (dB)
848.806	29.777
848.829	29.750
848.851	29.741
848.874	29.773
848.896	29.731
848.919	29.845
848.941	29.795
848.963	29.764
848.986	29.759
849.008	29.754
849.031	29.736
849.053	29.764
849.075	29.791
849.098	29.795
849.120	29.859
849.143	29.754
849.165	29.713
849.187	29.773
849.210	29.836
849.232	29.745
849.254	29.832
849.277	29.872
849.299	29.768
849.322	29.768
849.344	29.759
849.366	29.818
849.389	29.782
849.411	29.836
849.433	29.832
849.456	29.805
849.478	29.750
849.500	29.750
849.523	29.814
849.545	29.708
849.567	29.736
849.590	29.717
849.612	29.754
849.634	29.741
849.657	29.750
849.679	29.722
849.701	29.754
849.724	29.741
849.746	29.764
849.768	29.754
849.791	29.791
849.813	29.795
849.835	29.791
849.857	29.823
849.880	29.759
849.902	29.764
849.924	29.805
849.946	29.768
849.969	29.713
849.991	29.731
850.013	29.745
850.036	29.786
850.058	29.736
850.080	29.727
850.102	29.764
850.125	29.736
850.147	29.754
850.169	29.782
850.191	29.750
850.214	29.717
850.236	29.713
850.258	29.800
850.280	29.675
850.302	29.717
850.325	29.777
850.347	29.818
850.369	29.773
850.391	29.777
850.414	29.764
850.436	29.791
850.458	29.759
850.480	29.805
850.502	29.736
850.524	29.814
850.547	29.759
850.569	29.722
850.591	29.736
850.613	29.731
850.635	29.782
850.658	29.850
850.680	29.777
850.702	29.786
850.724	29.750
850.746	29.727
850.768	29.703
850.791	29.850
850.813	29.759
850.835	29.777
850.857	29.713
850.879	29.782
850.901	29.791
850.923	29.773
850.945	29.699
850.968	29.759
850.990	29.764
851.012	29.717
851.034	29.759
851.056	29.754
851.078	29.750
851.100	29.750
851.122	29.745
851.144	29.727
851.167	29.782
851.189	29.845
851.211	29.800
851.233	29.795
851.255	29.773
851.277	29.764
851.299	29.741
851.321	29.809
851.343	29.764
851.365	29.717
851.387	29.827
851.409	29.759
851.431	29.764
851.453	29.773
851.476	29.805
851.498	29.759
851.520	29.777
851.542	29.768
851.564	29.827
851.586	29.800
851.608	29.773
851.630	29.841
851.652	29.741
851.674	29.800
851.696	29.814
851.718	29.736
851.740	29.661
851.762	29.754
851.784	29.661
851.806	29.768
851.828	29.818
851.850	29.754
851.872	29.773
851.894	29.800
851.916	29.731
851.938	29.823
851.960	29.722
851.982	29.699
852.004	29.754
852.026	29.759
852.048	29.759
852.070	29.805
852.092	29.764
852.114	29.786
852.135	29.818
852.157	29.764
852.179	29.773
852.201	29.823
852.223	29.754
852.245	29.713
852.267	29.745
852.289	29.841
852.311	29.800
852.333	29.764
852.355	29.717
852.377	29.745
852.399	29.759
852.421	29.722
852.442	29.795
852.464	29.777
852.486	29.745
852.508	29.754
852.530	29.750
852.552	29.754
852.574	29.754
852.596	29.745
852.618	29.736
852.639	29.782
852.661	29.782
852.683	29.731
852.705	29.750
852.727	29.854
852.749	29.722
852.771	29.689
852.792	29.759
852.814	29.671
852.836	29.773
852.858	29.759
852.880	29.731
852.902	29.745
852.924	29.768
852.945	29.823
852.967	29.699
852.989	29.759
853.011	29.809
853.033	29.782
853.055	29.809
853.076	29.823
853.098	29.805
853.120	29.814
853.142	29.727
853.164	29.722
853.185	29.814
853.207	29.827
853.229	29.773
853.251	29.750
853.272	29.736
853.294	29.703
853.316	29.782
853.338	29.791
853.360	29.764
853.381	29.818
853.403	29.768
853.425	29.782
853.447	29.731
853.468	29.699
853.490	29.750
853.512	29.708
853.534	29.768
853.555	29.750
853.577	29.800
853.599	29.768
853.620	29.731
853.642	29.823
853.664	29.754
853.686	30.060
853.707	30.917
853.729	32.154
853.751	33.312
853.773	34.568
853.794	35.326
853.816	34.949
853.838	33.664
853.859	32.378
853.881	30.795
853.903	30.133
853.924	29.886
853.946	29.868
853.968	29.832
853.989	29.850
854.011	29.786
854.033	29.773
854.054	29.782
854.076	29.773
854.098	29.814
854.119	29.845
854.141	30.004
854.163	30.035
854.184	29.930
854.206	29.805
854.228	29.731
854.249	29.773
854.271	29.768
854.292	29.750
854.314	29.699
854.336	29.759
854.357	29.717
854.379	29.823
854.401	29.836
854.422	29.750
854.444	29.800
854.465	29.768
854.487	29.823
854.509	29.754
854.530	29.845
854.552	29.736
854.573	29.741
854.595	29.814
854.617	29.791
854.638	29.759
854.660	29.773
854.681	29.782
854.703	29.736
854.724	29.859
854.746	29.768
854.767	29.736
854.789	29.731
854.811	29.722
854.832	29.657
854.854	29.703
854.875	29.782
854.897	29.694
854.918	29.782
854.940	29.703
854.961	29.768
854.983	29.731
855.004	29.782
855.026	29.773
855.047	29.754
855.069	29.722
855.090	29.703
855.112	29.694
855.133	29.759
855.155	29.827
855.176	29.731
855.198	29.791
855.219	29.741
855.241	29.750
855.262	29.759
855.284	29.722
855.305	29.736
855.327	29.764
855.348	29.736
855.370	29.750
855.391	29.777
855.413	29.773
855.434	29.777
855.456	29.795
855.477	29.745
855.498	29.845
855.520	29.717
855.541	29.800
855.563	29.832
855.584	29.731
855.606	29.699
855.627	29.786
855.648	29.795
855.670	29.809
855.691	29.791
855.713	29.786
855.734	29.814
855.755	29.823
855.777	29.800
855.798	29.736
855.820	29.759
855.841	29.759
855.862	29.717
855.884	29.736
855.905	29.809
855.927	29.786
855.948	29.727
855.969	29.754
855.991	29.741
856.012	29.786
856.033	29.786
856.055	29.809
856.076	29.741
856.098	29.713
856.119	29.717
856.140	29.768
856.162	29.736
856.183	29.717
856.204	29.768
856.226	29.773
856.247	29.791
856.268	29.773
856.290	29.741
856.311	29.777
856.332	29.745
856.354	29.777
856.375	29.741
856.396	29.805
856.417	29.795
856.439	29.800
856.460	29.764
856.481	29.777
856.503	29.777
856.524	29.877
856.545	29.786
856.566	29.827
856.588	29.694
856.609	29.727
856.630	29.754
856.652	29.671
856.673	29.759
856.694	29.777
856.715	29.809
856.737	29.685
856.758	29.795
856.779	29.827
856.800	29.727
856.822	29.814
856.843	29.759
856.864	29.699
856.885	29.722
856.907	29.777
856.928	29.814
856.949	29.741
856.970	29.759
856.991	29.680
857.013	29.814
857.034	29.809
857.055	29.741
857.076	29.736
857.097	29.800
857.119	29.736
857.140	29.736
857.161	29.741
857.182	29.777
857.203	29.814
857.225	29.731
857.246	29.731
857.267	29.786
857.288	29.777
857.309	29.773
857.330	29.671
857.352	29.727
857.373	29.791
857.394	29.795
857.415	29.736
857.436	29.727
857.457	29.741
857.479	29.694
857.500	29.722
857.521	29.741
857.542	29.764
857.563	29.713
857.584	29.736
857.605	29.727
857.626	29.782
857.648	29.809
857.669	29.722
857.690	29.768
857.711	29.750
857.732	29.773
857.753	29.741
857.774	29.699
857.795	29.741
857.816	29.685
857.837	29.713
857.859	29.859
857.880	29.795
857.901	29.777
857.922	29.814
857.943	29.759
857.964	29.809
857.985	29.657
858.006	29.795
858.027	29.727
858.048	29.708
858.069	29.759
858.090	29.782
858.111	29.773
858.132	29.685
858.153	29.736
858.174	29.759
858.195	29.836
858.216	29.795
858.237	29.699
858.258	29.699
858.279	29.624
858.300	29.764
858.321	29.736
858.342	29.836
858.363	29.741
858.384	29.805
858.406	29.841
858.426	29.717
858.447	29.666
858.468	29.754
858.489	29.713
858.510	29.745
858.531	29.800
858.552	29.795
858.573	29.768
858.594	29.782
858.615	29.736
858.636	29.754
858.657	29.759
858.678	29.809
858.699	29.717
858.720	29.782
858.741	29.773
858.762	29.754
858.783	29.809
