Wavelength (nm)	Rel. spec. intensity (dB)
844.761	29.805
844.784	29.894
844.807	29.868
844.830	29.823
844.853	29.827
844.876	29.854
844.899	29.908
844.922	29.786
844.945	29.886
844.968	29.859
844.991	29.841
845.014	29.836
845.037	29.809
845.060	29.899
845.083	29.836
845.105	29.832
845.128	29.877
845.151	29.791
845.174	29.850
845.197	29.863
845.220	29.886
845.243	29.899
845.266	29.859
845.289	29.818
845.312	29.859
845.335	29.872
845.358	29.886
845.381	29.868
845.404	29.859
845.427	29.836
845.450	29.800
845.473	29.809
845.496	29.805
845.518	29.764
845.541	29.786
845.564	29.805
845.587	29.886
845.610	29.899
845.633	29.859
845.656	29.894
845.679	29.863
845.702	29.823
845.724	29.890
845.747	29.912
845.770	29.845
845.793	29.832
845.816	29.800
845.839	29.836
845.862	29.836
845.885	29.814
845.907	29.823
845.930	29.836
845.953	29.854
845.976	29.868
845.999	29.943
846.022	29.832
846.045	29.845
846.067	29.863
846.090	29.827
846.113	29.841
846.136	29.814
846.159	29.823
846.182	29.805
846.204	29.805
846.227	29.832
846.250	29.818
846.273	29.795
846.296	29.859
846.318	29.814
846.341	29.868
846.364	29.823
846.387	29.877
846.410	29.854
846.432	29.886
846.455	29.795
846.478	29.768
846.501	29.759
846.523	29.841
846.546	29.836
846.569	29.805
846.592	29.832
846.614	29.827
846.637	29.854
846.660	29.939
846.683	29.795
846.705	29.886
846.728	29.823
846.751	29.850
846.774	29.832
846.796	29.827
846.819	29.800
846.842	29.872
846.865	29.881
846.887	29.877
846.910	29.868
846.933	29.872
846.955	29.777
846.978	29.845
847.001	29.863
847.023	29.768
847.046	29.809
847.069	29.800
847.092	29.791
847.114	29.805
847.137	29.863
847.160	29.868
847.182	29.850
847.205	29.814
847.228	29.786
847.250	29.805
847.273	29.805
847.296	29.800
847.318	29.809
847.341	29.872
847.364	29.809
847.386	29.814
847.409	29.791
847.432	29.795
847.454	29.868
847.477	29.881
847.499	29.791
847.522	29.850
847.545	29.863
847.567	29.832
847.590	29.859
847.613	29.795
847.635	29.854
847.658	29.908
847.680	29.872
847.703	29.926
847.726	29.800
847.748	29.890
847.771	29.934
847.793	29.859
847.816	29.818
847.839	29.786
847.861	29.809
847.884	29.854
847.906	29.899
847.929	29.881
847.951	29.859
847.974	29.809
847.996	29.814
848.019	29.823
848.042	29.818
848.064	29.859
848.087	29.881
848.109	29.881
848.132	29.814
848.154	29.836
848.177	29.841
848.199	29.850
848.222	29.850
848.244	29.805
848.267	29.809
848.289	29.832
848.312	29.809
848.334	29.841
848.357	29.782
848.379	29.868
848.402	29.832
848.424	29.881
848.447	29.845
848.469	29.800
848.492	29.782
848.514	29.930
848.537	29.841
848.559	29.800
848.582	29.912
848.604	29.809
848.627	29.809
848.649	29.823
848.672	29.863
848.694	29.814
848.717	29.773
848.739	29.768
848.761	29.809
848.784	29.795
848.806	29.836
848.829	29.886
848.851	29.877
848.874	29.877
848.896	29.930
848.919	29.921
848.941	29.863
848.963	29.827
848.986	29.854
849.008	29.768
849.031	29.859
849.053	29.845
849.075	29.795
849.098	29.809
849.120	29.827
849.143	29.921
849.165	30.314
849.187	31.239
849.210	32.074
849.232	33.045
849.254	34.470
849.277	35.593
849.299	35.607
849.322	36.078
849.344	36.505
849.366	36.369
849.389	35.968
849.411	34.254
849.433	32.737
849.456	31.216
849.478	30.322
849.500	30.026
849.523	30.004
849.545	29.921
849.567	29.863
849.590	29.983
849.612	30.224
849.634	31.424
849.657	32.887
849.679	34.310
849.701	35.605
849.724	37.029
849.746	38.074
849.768	38.015
849.791	36.843
849.813	34.923
849.835	33.318
849.857	31.464
849.880	30.414
849.902	30.111
849.924	29.974
849.946	29.974
849.969	29.899
849.991	29.917
850.013	29.850
850.036	29.903
850.058	29.886
850.080	30.073
850.102	30.026
850.125	29.881
850.147	29.899
850.169	29.872
850.191	29.805
850.214	29.899
850.236	29.868
850.258	29.872
850.280	29.881
850.302	29.859
850.325	29.894
850.347	29.795
850.369	29.863
850.391	29.841
850.414	29.863
850.436	29.863
850.458	29.859
850.480	29.795
850.502	29.823
850.524	29.845
850.547	29.881
850.569	29.791
850.591	29.805
850.613	29.939
850.635	29.845
850.658	29.872
850.680	29.899
850.702	29.773
850.724	29.850
850.746	29.841
850.768	29.805
850.791	29.868
850.813	29.827
850.835	29.859
850.857	29.841
850.879	29.886
850.901	29.786
850.923	29.832
850.945	29.777
850.968	29.827
850.990	29.809
851.012	29.872
851.034	29.809
851.056	29.786
851.078	29.881
851.100	29.912
851.122	29.850
851.144	29.823
851.167	29.859
851.189	29.782
851.211	29.836
851.233	29.841
851.255	29.850
851.277	29.795
851.299	29.877
851.321	29.868
851.343	29.859
851.365	29.841
851.387	29.814
851.409	29.827
851.431	29.750
851.453	29.764
851.476	29.823
851.498	29.809
851.520	29.881
851.542	29.877
851.564	29.859
851.586	29.965
851.608	29.841
851.630	29.912
851.652	29.886
851.674	29.850
851.696	29.814
851.718	29.863
851.740	29.805
851.762	29.736
851.784	29.854
851.806	29.863
851.828	29.764
851.850	29.786
851.872	29.854
851.894	29.845
851.916	29.863
851.938	29.877
851.960	29.854
851.982	29.841
852.004	29.850
852.026	29.782
852.048	29.795
852.070	29.809
852.092	29.827
852.114	29.818
852.135	29.814
852.157	29.814
852.179	29.872
852.201	29.814
852.223	29.782
852.245	29.841
852.267	29.921
852.289	29.917
852.311	29.832
852.333	29.773
852.355	29.773
852.377	29.836
852.399	29.782
852.421	29.809
852.442	29.795
852.464	29.921
852.486	29.859
852.508	29.912
852.530	29.795
852.552	29.850
852.574	29.777
852.596	29.850
852.618	29.859
852.639	29.845
852.661	29.773
852.683	29.786
852.705	29.791
852.727	29.791
852.749	29.741
852.771	29.754
852.792	29.836
852.814	29.872
852.836	29.809
852.858	29.886
852.880	29.832
852.902	29.745
852.924	29.845
852.945	29.782
852.967	29.809
852.989	29.809
853.011	29.845
853.033	29.850
853.055	29.841
853.076	29.845
853.098	29.809
853.120	29.890
853.142	29.836
853.164	29.845
853.185	29.832
853.207	29.854
853.229	29.823
853.251	29.845
853.272	29.841
853.294	29.836
853.316	29.805
853.338	29.814
853.360	29.786
853.381	29.881
853.403	29.809
853.425	29.868
853.447	29.872
853.468	29.886
853.490	29.863
853.512	29.877
853.534	29.791
853.555	29.899
853.577	29.868
853.599	29.827
853.620	29.814
853.642	29.818
853.664	29.805
853.686	29.750
853.707	29.881
853.729	29.832
853.751	29.841
853.773	29.850
853.794	29.827
853.816	29.800
853.838	29.795
853.859	29.881
853.881	29.777
853.903	29.863
853.924	29.845
853.946	29.903
853.968	29.863
853.989	29.859
854.011	29.841
854.033	29.773
854.054	29.854
854.076	29.777
854.098	29.868
854.119	29.791
854.141	29.773
854.163	29.809
854.184	29.917
854.206	29.823
854.228	29.814
854.249	29.832
854.271	29.809
854.292	29.863
854.314	29.827
854.336	29.899
854.357	29.827
854.379	29.890
854.401	29.850
854.422	29.791
854.444	29.859
854.465	29.832
854.487	29.836
854.509	29.886
854.530	29.850
854.552	29.899
854.573	29.845
854.595	29.854
854.617	29.782
854.638	29.886
854.660	29.814
854.681	29.850
854.703	29.841
854.724	29.814
