Wavelength (nm)	Rel. spec. intensity (dB)
849.969	29.832
849.991	29.908
850.013	29.872
850.036	29.877
850.058	29.795
850.080	29.841
850.102	29.872
850.125	29.841
850.147	29.872
850.169	29.952
850.191	29.854
850.214	29.773
850.236	29.818
850.258	29.768
850.280	29.805
850.302	29.782
850.325	29.845
850.347	29.823
850.369	29.800
850.391	29.894
850.414	29.899
850.436	29.854
850.458	29.836
850.480	29.777
850.502	29.841
850.524	29.809
850.547	29.809
850.569	29.850
850.591	29.850
850.613	29.863
850.635	29.827
850.658	29.818
850.680	29.791
850.702	29.877
850.724	29.868
850.746	29.850
850.768	29.773
850.791	29.859
850.813	29.805
850.835	29.823
850.857	29.899
850.879	29.854
850.901	29.800
850.923	29.863
850.945	29.841
850.968	29.836
850.990	29.795
851.012	29.795
851.034	29.823
851.056	29.868
851.078	29.890
851.100	29.886
851.122	29.823
851.144	29.823
851.167	29.782
851.189	29.786
851.211	29.768
851.233	29.800
851.255	29.827
851.277	29.845
851.299	29.845
851.321	29.754
851.343	29.823
851.365	29.877
851.387	29.845
851.409	29.731
851.431	29.791
851.453	29.841
851.476	29.823
851.498	29.809
851.520	29.745
851.542	29.854
851.564	29.814
851.586	29.823
851.608	29.809
851.630	29.854
851.652	29.791
851.674	29.786
851.696	29.827
851.718	29.836
851.740	29.795
851.762	29.850
851.784	29.841
851.806	29.850
851.828	29.818
851.850	29.827
851.872	29.854
851.894	29.899
851.916	29.877
851.938	29.805
851.960	29.845
851.982	29.899
852.004	29.926
852.026	29.850
852.048	29.823
852.070	29.908
852.092	29.881
852.114	29.845
852.135	29.886
852.157	29.859
852.179	29.786
852.201	29.877
852.223	29.903
852.245	29.759
852.267	29.800
852.289	29.827
852.311	29.836
852.333	29.877
852.355	29.841
852.377	29.836
852.399	29.894
852.421	29.868
852.442	29.845
852.464	29.903
852.486	29.850
852.508	29.877
852.530	29.809
852.552	29.854
852.574	29.899
852.596	29.850
852.618	29.782
852.639	29.845
852.661	29.868
852.683	29.845
852.705	29.809
852.727	29.836
852.749	29.841
852.771	29.818
852.792	29.827
852.814	29.859
852.836	29.809
852.858	29.827
852.880	29.827
852.902	29.836
852.924	29.823
852.945	29.827
852.967	29.805
852.989	29.894
853.011	29.814
853.033	29.845
853.055	29.841
853.076	29.850
853.098	29.782
853.120	29.795
853.142	29.832
853.164	29.805
853.185	29.791
853.207	29.872
853.229	29.805
853.251	29.827
853.272	29.859
853.294	29.814
853.316	29.832
853.338	29.886
853.360	29.805
853.381	29.881
853.403	29.809
853.425	29.899
853.447	29.845
853.468	29.872
853.490	29.912
853.512	29.850
853.534	29.827
853.555	29.845
853.577	29.881
853.599	29.854
853.620	29.890
853.642	29.809
853.664	29.912
853.686	29.832
853.707	29.845
853.729	29.854
853.751	29.859
853.773	29.863
853.794	29.841
853.816	29.881
853.838	29.903
853.859	29.827
853.881	29.786
853.903	29.872
853.924	29.845
853.946	29.890
853.968	29.773
853.989	29.863
854.011	29.795
854.033	29.908
854.054	29.886
854.076	29.863
854.098	29.859
854.119	29.805
854.141	29.795
854.163	29.832
854.184	29.795
854.206	29.814
854.228	29.877
854.249	29.903
854.271	29.903
854.292	29.903
854.314	29.805
854.336	29.850
854.357	29.836
854.379	29.832
854.401	29.823
854.422	29.786
854.444	29.877
854.465	29.850
854.487	29.845
854.509	29.832
854.530	29.841
854.552	29.877
854.573	29.777
854.595	29.845
854.617	29.921
854.638	29.836
854.660	29.934
854.681	29.899
854.703	29.952
854.724	29.777
854.746	29.827
854.767	29.921
854.789	30.017
854.811	30.052
854.832	30.298
854.854	30.831
854.875	31.339
854.897	32.230
854.918	33.004
854.940	33.655
854.961	33.902
854.983	33.670
855.004	32.953
855.026	31.746
855.047	30.622
855.069	30.183
855.090	29.908
855.112	29.877
855.133	29.868
855.155	29.845
855.176	29.832
855.198	29.877
855.219	29.868
855.241	29.859
855.262	29.881
855.284	29.872
855.305	29.814
855.327	29.863
855.348	29.841
855.370	29.899
855.391	29.868
855.413	29.894
855.434	29.868
855.456	29.854
855.477	29.845
855.498	29.845
855.520	29.809
855.541	29.741
855.563	29.703
855.584	29.850
855.606	29.791
855.627	29.859
855.648	29.877
855.670	29.956
855.691	29.859
855.713	29.741
855.734	29.841
855.755	29.881
855.777	29.868
855.798	29.881
855.820	29.727
855.841	29.750
855.862	29.814
855.884	29.868
855.905	29.741
855.927	29.899
855.948	29.800
855.969	29.823
855.991	29.800
856.012	29.863
856.033	29.800
856.055	29.863
856.076	29.881
856.098	29.827
856.119	29.890
856.140	29.823
856.162	29.782
856.183	29.863
856.204	29.795
856.226	29.912
856.247	29.832
856.268	29.814
856.290	29.809
856.311	29.795
856.332	29.903
856.354	29.868
856.375	29.881
856.396	29.818
856.417	29.850
856.439	29.845
856.460	29.872
856.481	29.809
856.503	29.894
856.524	29.827
856.545	29.805
856.566	29.845
856.588	29.859
856.609	29.872
856.630	29.877
856.652	29.859
856.673	29.827
856.694	29.768
856.715	29.868
856.737	29.845
856.758	29.791
856.779	29.854
856.800	29.827
856.822	29.791
856.843	29.841
856.864	29.841
856.885	29.827
856.907	29.841
856.928	29.786
856.949	29.764
856.970	29.872
856.991	29.759
857.013	29.814
857.034	29.903
857.055	29.899
857.076	29.841
857.097	29.859
857.119	29.890
857.140	29.881
857.161	29.845
857.182	29.795
857.203	29.894
857.225	29.773
857.246	29.845
857.267	29.745
857.288	29.854
857.309	29.899
857.330	29.894
857.352	29.827
857.373	29.881
857.394	29.764
857.415	29.823
857.436	29.832
857.457	29.827
857.479	29.912
857.500	29.823
857.521	29.809
857.542	29.841
857.563	29.795
857.584	29.917
857.605	29.841
857.626	29.791
857.648	29.814
857.669	29.930
857.690	29.805
857.711	29.836
857.732	29.809
857.753	29.845
857.774	29.814
857.795	29.818
857.816	29.850
857.837	29.868
857.859	29.859
857.880	29.886
857.901	29.859
857.922	29.809
857.943	29.850
857.964	29.890
857.985	29.795
858.006	29.777
858.027	29.827
858.048	29.795
858.069	29.836
858.090	29.795
858.111	29.768
858.132	29.818
858.153	29.877
858.174	29.877
858.195	29.836
858.216	29.845
858.237	29.886
858.258	29.886
858.279	29.827
858.300	29.773
858.321	29.818
858.342	29.859
858.363	29.850
858.384	29.832
858.406	29.814
858.426	29.791
858.447	29.818
858.468	29.854
858.489	29.859
858.510	29.818
858.531	29.795
858.552	29.777
858.573	29.827
858.594	29.795
858.615	29.850
858.636	29.841
858.657	29.899
858.678	29.912
858.699	29.841
858.720	29.872
858.741	29.786
858.762	29.877
858.783	29.841
858.804	29.863
858.825	29.841
858.846	29.823
858.867	29.823
858.888	29.786
858.908	29.850
858.929	29.827
858.950	29.859
858.971	29.850
858.992	29.818
859.013	29.863
859.034	29.836
859.055	29.809
859.076	29.800
859.097	29.809
859.117	29.836
859.138	29.872
859.159	29.872
859.180	29.877
859.201	29.863
859.222	29.777
859.243	29.809
859.264	29.881
859.284	29.850
859.305	29.859
859.326	29.886
859.347	29.877
859.368	29.805
859.389	29.791
859.410	29.845
859.430	29.827
859.451	29.814
859.472	29.764
859.493	29.777
859.514	29.881
859.534	29.872
859.555	29.845
859.576	29.814
859.597	29.818
859.618	29.845
859.639	29.754
859.659	29.827
859.680	29.795
859.701	29.850
859.722	29.845
859.742	29.832
859.763	29.768
859.784	29.836
859.805	29.859
859.826	29.791
859.846	29.868
859.867	29.850
859.888	29.894
859.909	29.809
859.929	29.836
859.950	29.845
