Wavelength (nm)	Rel. spec. intensity (dB)
847.001	29.699
847.023	29.731
847.046	29.795
847.069	29.722
847.092	29.727
847.114	29.777
847.137	29.652
847.160	29.661
847.182	29.703
847.205	29.638
847.228	29.699
847.250	29.708
847.273	29.768
847.296	29.741
847.318	29.703
847.341	29.754
847.364	29.708
847.386	29.652
847.409	29.754
847.432	29.713
847.454	29.764
847.477	29.731
847.499	29.713
847.522	29.800
847.545	29.764
847.567	29.708
847.590	29.754
847.613	29.717
847.635	29.722
847.658	29.671
847.680	29.745
847.703	29.722
847.726	29.759
847.748	29.768
847.771	29.657
847.793	29.754
847.816	29.713
847.839	29.805
847.861	29.722
847.884	29.750
847.906	29.689
847.929	29.764
847.951	29.759
847.974	29.703
847.996	29.722
848.019	29.708
848.042	29.689
848.064	29.717
848.087	29.713
848.109	29.736
848.132	29.717
848.154	29.736
848.177	29.754
848.199	29.708
848.222	29.619
848.244	29.703
848.267	29.773
848.289	29.713
848.312	29.750
848.334	29.722
848.357	29.768
848.379	29.818
848.402	29.741
848.424	29.699
848.447	29.699
848.469	29.754
848.492	29.713
848.514	29.713
848.537	29.675
848.559	29.713
848.582	29.731
848.604	29.717
848.627	29.689
848.649	29.750
848.672	29.713
848.694	29.777
848.717	29.736
848.739	29.768
848.761	29.694
848.784	29.699
848.806	29.694
848.829	29.764
848.851	29.736
848.874	29.708
848.896	29.624
848.919	29.713
848.941	29.791
848.963	29.754
848.986	29.764
849.008	29.731
849.031	29.722
849.053	29.795
849.075	29.685
849.098	29.795
849.120	29.795
849.143	29.741
849.165	29.805
849.187	29.759
849.210	29.736
849.232	29.750
849.254	29.703
849.277	29.661
849.299	29.750
849.322	29.773
849.344	29.773
849.366	29.791
849.389	29.731
849.411	29.777
849.433	29.768
849.456	29.703
849.478	29.671
849.500	29.731
849.523	29.777
849.545	29.750
849.567	29.736
849.590	29.713
849.612	29.708
849.634	29.717
849.657	29.741
849.679	29.689
849.701	29.731
849.724	29.764
849.746	29.736
849.768	29.741
849.791	29.694
849.813	29.754
849.835	29.680
849.857	29.675
849.880	29.703
849.902	29.713
849.924	29.773
849.946	29.777
849.969	29.795
849.991	29.717
850.013	29.708
850.036	29.680
850.058	29.741
850.080	29.773
850.102	29.694
850.125	29.782
850.147	29.703
850.169	29.818
850.191	29.657
850.214	29.713
850.236	29.773
850.258	29.759
850.280	29.699
850.302	29.773
850.325	29.703
850.347	29.666
850.369	29.759
850.391	29.717
850.414	29.800
850.436	29.777
850.458	29.741
850.480	29.750
850.502	29.768
850.524	29.777
850.547	29.809
850.569	29.741
850.591	29.800
850.613	29.722
850.635	29.777
850.658	29.890
850.680	30.378
850.702	31.062
850.724	31.649
850.746	32.310
850.768	32.378
850.791	31.547
850.813	31.048
850.835	30.828
850.857	30.983
850.879	31.449
850.901	32.405
850.923	33.497
850.945	34.646
850.968	35.169
850.990	34.255
851.012	33.124
851.034	31.898
851.056	30.573
851.078	29.934
851.100	29.731
851.122	29.786
851.144	29.791
851.167	29.764
851.189	29.773
851.211	29.727
851.233	29.731
851.255	29.777
851.277	29.768
851.299	29.703
851.321	29.741
851.343	29.795
851.365	29.745
851.387	29.773
851.409	29.782
851.431	29.759
851.453	29.791
851.476	29.782
851.498	29.722
851.520	29.777
851.542	29.795
851.564	29.791
851.586	29.666
851.608	29.717
851.630	29.773
851.652	29.795
851.674	29.764
851.696	29.731
851.718	29.703
851.740	29.745
851.762	29.854
851.784	30.154
851.806	30.550
851.828	31.443
851.850	33.032
851.872	34.791
851.894	36.668
851.916	38.282
851.938	38.778
851.960	38.624
851.982	38.977
852.004	38.488
852.026	36.855
852.048	35.592
852.070	34.301
852.092	32.962
852.114	31.271
852.135	30.253
852.157	29.956
852.179	29.823
852.201	29.827
852.223	29.863
852.245	29.795
852.267	29.782
852.289	29.717
852.311	29.736
852.333	29.782
852.355	29.786
852.377	29.768
852.399	29.809
852.421	29.786
852.442	29.731
852.464	29.768
852.486	29.754
852.508	29.754
852.530	29.722
852.552	29.727
852.574	29.708
852.596	29.671
852.618	29.680
852.639	29.791
852.661	29.694
852.683	29.745
852.705	29.741
852.727	29.736
852.749	29.731
852.771	29.736
852.792	29.657
852.814	29.741
852.836	29.759
852.858	29.823
852.880	29.800
852.902	29.759
852.924	29.736
852.945	29.741
852.967	29.713
852.989	29.722
853.011	29.600
853.033	29.685
853.055	29.754
853.076	29.717
853.098	29.727
853.120	29.741
853.142	29.727
853.164	29.795
853.185	29.741
853.207	29.773
853.229	29.773
853.251	29.727
853.272	29.661
853.294	29.713
853.316	29.713
853.338	29.773
853.360	29.782
853.381	29.836
853.403	29.764
853.425	29.754
853.447	29.750
853.468	29.736
853.490	29.713
853.512	29.722
853.534	29.699
853.555	29.675
853.577	29.713
853.599	29.764
853.620	29.652
853.642	29.736
853.664	29.703
853.686	29.671
853.707	29.745
853.729	29.754
853.751	29.768
853.773	29.694
853.794	29.741
853.816	29.782
853.838	29.791
853.859	29.786
853.881	29.717
853.903	29.727
853.924	29.713
853.946	29.782
853.968	29.703
853.989	29.764
854.011	29.685
854.033	29.689
854.054	29.652
854.076	29.657
854.098	29.689
854.119	29.722
854.141	29.703
854.163	29.750
854.184	29.777
854.206	29.800
854.228	29.717
854.249	29.773
854.271	29.777
854.292	29.731
854.314	29.713
854.336	29.713
854.357	29.699
854.379	29.657
854.401	29.685
854.422	29.671
854.444	29.685
854.465	29.741
854.487	29.685
854.509	29.768
854.530	29.759
854.552	29.680
854.573	29.694
854.595	29.703
854.617	29.731
854.638	29.727
854.660	29.745
854.681	29.717
854.703	29.689
854.724	29.717
854.746	29.759
854.767	29.731
854.789	29.791
854.811	29.703
854.832	29.643
854.854	29.689
854.875	29.685
854.897	29.713
854.918	29.731
854.940	29.754
854.961	29.764
854.983	29.736
855.004	29.671
855.026	29.699
855.047	29.750
855.069	29.777
855.090	29.699
855.112	29.713
855.133	29.736
855.155	29.685
855.176	29.703
855.198	29.689
855.219	29.750
855.241	29.722
855.262	29.754
855.284	29.713
855.305	29.713
855.327	29.722
855.348	29.713
855.370	29.759
855.391	29.717
855.413	29.699
855.434	29.699
855.456	29.694
855.477	29.619
855.498	29.703
855.520	29.754
855.541	29.717
855.563	29.731
855.584	29.652
855.606	29.703
855.627	29.713
855.648	29.731
855.670	29.722
855.691	29.754
855.713	29.717
855.734	29.680
855.755	29.680
855.777	29.773
855.798	29.773
855.820	29.750
855.841	29.786
855.862	29.764
855.884	29.768
855.905	29.731
855.927	29.768
855.948	29.624
855.969	29.745
855.991	29.671
856.012	29.708
856.033	29.741
856.055	29.624
856.076	29.699
856.098	29.680
856.119	29.800
856.140	29.699
856.162	29.713
856.183	29.699
856.204	29.717
856.226	29.699
856.247	29.736
856.268	29.708
856.290	29.786
856.311	29.827
856.332	29.823
856.354	29.703
856.375	29.680
856.396	29.680
856.417	29.722
856.439	29.647
856.460	29.777
856.481	29.717
856.503	29.773
856.524	29.759
856.545	29.703
856.566	29.750
856.588	29.717
856.609	29.675
856.630	29.768
856.652	29.708
856.673	29.768
856.694	29.671
856.715	29.703
856.737	29.764
856.758	29.782
856.779	29.791
856.800	29.764
856.822	29.727
856.843	29.680
856.864	29.805
856.885	29.845
856.907	29.661
856.928	29.657
856.949	29.731
856.970	29.703
