Wavelength (nm)	Rel. spec. intensity (dB)
845.793	29.661
845.816	29.768
845.839	29.717
845.862	29.703
845.885	29.699
845.907	29.708
845.930	29.777
845.953	29.777
845.976	29.708
845.999	29.703
846.022	29.699
846.045	29.708
846.067	29.717
846.090	29.703
846.113	29.741
846.136	29.800
846.159	29.722
846.182	29.657
846.204	29.699
846.227	29.708
846.250	29.786
846.273	29.805
846.296	29.741
846.318	29.713
846.341	29.708
846.364	29.731
846.387	29.708
846.410	29.759
846.432	29.745
846.455	29.717
846.478	29.713
846.501	29.745
846.523	29.736
846.546	29.713
846.569	29.713
846.592	29.759
846.614	29.731
846.637	29.745
846.660	29.741
846.683	29.671
846.705	29.759
846.728	29.727
846.751	29.717
846.774	29.703
846.796	29.708
846.819	29.657
846.842	29.727
846.865	29.685
846.887	29.717
846.910	29.795
846.933	29.786
846.955	29.727
846.978	29.699
847.001	29.694
847.023	29.675
847.046	29.750
847.069	29.750
847.092	29.727
847.114	29.818
847.137	29.773
847.160	29.708
847.182	29.727
847.205	29.717
847.228	29.685
847.250	29.741
847.273	29.703
847.296	29.736
847.318	29.661
847.341	29.680
847.364	29.708
847.386	29.782
847.409	29.759
847.432	29.777
847.454	29.786
847.477	29.727
847.499	29.713
847.522	29.773
847.545	29.782
847.567	29.731
847.590	29.713
847.613	29.750
847.635	29.666
847.658	29.736
847.680	29.666
847.703	29.727
847.726	29.661
847.748	29.764
847.771	29.745
847.793	29.689
847.816	29.764
847.839	29.786
847.861	29.741
847.884	29.671
847.906	29.832
847.929	29.764
847.951	29.750
847.974	29.727
847.996	29.727
848.019	29.708
848.042	29.754
848.064	29.741
848.087	29.638
848.109	29.745
848.132	29.628
848.154	29.722
848.177	29.713
848.199	29.647
848.222	29.727
848.244	29.722
848.267	29.750
848.289	29.777
848.312	29.717
848.334	29.694
848.357	29.722
848.379	29.764
848.402	29.741
848.424	29.722
848.447	29.685
848.469	29.675
848.492	29.624
848.514	29.675
848.537	29.768
848.559	29.736
848.582	29.741
848.604	29.717
848.627	29.680
848.649	29.736
848.672	29.675
848.694	29.786
848.717	29.717
848.739	29.800
848.761	29.699
848.784	29.727
848.806	29.666
848.829	29.722
848.851	29.773
848.874	29.741
848.896	29.768
848.919	29.717
848.941	29.736
848.963	29.727
848.986	29.713
849.008	29.685
849.031	29.657
849.053	29.754
849.075	29.717
849.098	29.675
849.120	29.619
849.143	29.647
849.165	29.727
849.187	29.745
849.210	29.708
849.232	29.805
849.254	29.731
849.277	29.731
849.299	29.731
849.322	29.722
849.344	29.699
849.366	29.727
849.389	29.777
849.411	29.859
849.433	29.841
849.456	30.077
849.478	30.124
849.500	29.863
849.523	29.750
849.545	29.731
849.567	29.713
849.590	29.731
849.612	29.745
849.634	29.703
849.657	29.671
849.679	29.689
849.701	29.827
849.724	29.768
849.746	29.699
849.768	29.764
849.791	29.713
849.813	29.841
849.835	29.764
849.857	29.713
849.880	29.727
849.902	29.777
849.924	29.675
849.946	29.750
849.969	29.685
849.991	29.754
850.013	29.741
850.036	29.699
850.058	29.800
850.080	29.754
850.102	29.731
850.125	29.638
850.147	29.689
850.169	29.736
850.191	29.768
850.214	29.841
850.236	29.782
850.258	29.694
850.280	29.638
850.302	29.666
850.325	29.759
850.347	29.768
850.369	29.619
850.391	29.699
850.414	29.685
850.436	29.727
850.458	29.689
850.480	29.722
850.502	29.736
850.524	29.773
850.547	29.786
850.569	29.750
850.591	30.035
850.613	30.686
850.635	31.682
850.658	32.923
850.680	34.128
850.702	35.406
850.724	36.236
850.746	36.574
850.768	37.086
850.791	37.683
850.813	37.151
850.835	35.588
850.857	34.456
850.879	33.199
850.901	31.755
850.923	30.535
850.945	30.000
850.968	29.854
850.990	29.741
851.012	29.736
851.034	29.713
851.056	29.745
851.078	29.736
851.100	29.680
851.122	29.768
851.144	29.786
851.167	29.791
851.189	29.773
851.211	29.731
851.233	29.750
851.255	29.754
851.277	29.671
851.299	29.777
851.321	29.736
851.343	29.713
851.365	29.638
851.387	29.754
851.409	29.786
851.431	29.795
851.453	29.731
851.476	29.731
851.498	29.759
851.520	29.777
851.542	29.759
851.564	29.647
851.586	29.777
851.608	29.675
851.630	29.741
851.652	29.713
851.674	29.754
851.696	29.795
851.718	29.671
851.740	29.736
851.762	29.675
851.784	29.722
851.806	29.713
851.828	29.694
851.850	29.795
851.872	29.823
851.894	29.881
851.916	30.599
851.938	31.661
851.960	33.126
851.982	34.625
852.004	35.867
852.026	36.030
852.048	34.786
852.070	33.797
852.092	32.737
852.114	31.271
852.135	30.137
852.157	29.908
852.179	29.832
852.201	29.845
852.223	29.800
852.245	29.717
852.267	29.717
852.289	29.661
852.311	29.782
852.333	29.685
852.355	29.741
852.377	29.727
852.399	29.699
852.421	29.727
852.442	29.717
852.464	29.759
852.486	29.750
852.508	29.689
852.530	29.727
852.552	29.661
852.574	29.777
852.596	29.722
852.618	29.786
852.639	29.773
852.661	29.675
852.683	29.699
852.705	29.708
852.727	29.722
852.749	29.754
852.771	29.795
852.792	29.777
852.814	29.689
852.836	29.731
852.858	29.708
852.880	29.745
852.902	29.736
852.924	29.727
852.945	29.773
852.967	29.680
852.989	29.731
853.011	29.741
853.033	29.736
853.055	29.750
853.076	29.717
853.098	29.703
853.120	29.722
853.142	29.741
853.164	29.689
853.185	29.694
853.207	29.741
853.229	29.741
853.251	29.736
853.272	29.713
853.294	29.777
853.316	29.786
853.338	29.754
853.360	29.759
853.381	29.827
853.403	29.754
853.425	29.713
853.447	29.708
853.468	29.666
853.490	29.685
853.512	29.671
853.534	29.675
853.555	29.657
853.577	29.689
853.599	29.722
853.620	29.671
853.642	29.745
853.664	29.694
853.686	29.727
853.707	29.708
853.729	29.741
853.751	29.689
853.773	29.764
853.794	29.736
853.816	29.675
853.838	29.754
853.859	29.731
853.881	29.759
853.903	29.805
853.924	29.764
853.946	29.680
853.968	29.754
853.989	29.727
854.011	29.773
854.033	29.657
854.054	29.750
854.076	29.727
854.098	29.727
854.119	29.764
854.141	29.680
854.163	29.722
854.184	29.731
854.206	29.750
854.228	29.628
854.249	29.741
854.271	29.773
854.292	29.832
854.314	29.773
854.336	29.773
854.357	29.685
854.379	29.731
854.401	29.773
854.422	29.750
854.444	29.736
854.465	29.661
854.487	29.680
854.509	29.666
854.530	29.675
854.552	29.764
854.573	29.713
854.595	29.685
854.617	29.722
854.638	29.722
854.660	29.773
854.681	29.773
854.703	29.754
854.724	29.694
854.746	29.741
854.767	29.661
854.789	29.727
854.811	29.685
854.832	29.777
854.854	29.703
854.875	29.713
854.897	29.736
854.918	29.745
854.940	29.773
854.961	29.791
854.983	29.727
855.004	29.745
855.026	29.736
855.047	29.754
855.069	29.736
855.090	29.675
855.112	29.754
855.133	29.736
855.155	29.736
855.176	29.717
855.198	29.685
855.219	29.717
855.241	29.671
855.262	29.685
855.284	29.699
855.305	29.731
855.327	29.713
855.348	29.680
855.370	29.722
855.391	29.764
855.413	29.731
855.434	29.666
855.456	29.708
855.477	29.759
855.498	29.708
855.520	29.731
855.541	29.600
855.563	29.727
855.584	29.666
855.606	29.717
855.627	29.722
855.648	29.754
855.670	29.713
855.691	29.764
855.713	29.764
855.734	29.689
855.755	29.754
855.777	29.759
