Wavelength (nm)	Rel. spec. intensity (dB)
844.622	29.754
844.645	29.638
844.668	29.694
844.692	29.717
844.715	29.671
844.738	29.685
844.761	29.657
844.784	29.731
844.807	29.699
844.830	29.647
844.853	29.713
844.876	29.680
844.899	29.652
844.922	29.745
844.945	29.694
844.968	29.782
844.991	29.694
845.014	29.741
845.037	29.731
845.060	29.750
845.083	29.727
845.105	29.661
845.128	29.689
845.151	29.717
845.174	29.731
845.197	29.791
845.220	29.764
845.243	29.736
845.266	29.722
845.289	29.727
845.312	29.754
845.335	29.685
845.358	29.754
845.381	29.689
845.404	29.745
845.427	29.745
845.450	29.773
845.473	29.708
845.496	29.689
845.518	29.708
845.541	29.675
845.564	29.699
845.587	29.703
845.610	29.731
845.633	29.768
845.656	29.722
845.679	29.694
845.702	29.699
845.724	29.680
845.747	29.685
845.770	29.713
845.793	29.750
845.816	29.731
845.839	29.703
845.862	29.786
845.885	29.750
845.907	29.745
845.930	29.680
845.953	29.809
845.976	29.722
845.999	29.708
846.022	29.754
846.045	29.652
846.067	29.759
846.090	29.731
846.113	29.680
846.136	29.750
846.159	29.685
846.182	29.708
846.204	29.713
846.227	29.731
846.250	29.818
846.273	29.600
846.296	29.689
846.318	29.675
846.341	29.805
846.364	29.750
846.387	29.827
846.410	29.754
846.432	29.722
846.455	29.736
846.478	29.782
846.501	29.777
846.523	29.745
846.546	29.699
846.569	29.671
846.592	29.671
846.614	29.680
846.637	29.717
846.660	29.680
846.683	29.671
846.705	29.754
846.728	29.680
846.751	29.731
846.774	29.727
846.796	29.777
846.819	29.754
846.842	29.694
846.865	29.699
846.887	29.741
846.910	29.764
846.933	29.671
846.955	29.671
846.978	29.731
847.001	29.661
847.023	29.727
847.046	29.736
847.069	29.699
847.092	29.675
847.114	29.717
847.137	29.661
847.160	29.722
847.182	29.699
847.205	29.773
847.228	29.731
847.250	29.652
847.273	29.661
847.296	29.754
847.318	29.773
847.341	29.759
847.364	29.731
847.386	29.708
847.409	29.750
847.432	29.805
847.454	29.708
847.477	29.713
847.499	29.685
847.522	29.754
847.545	29.768
847.567	29.736
847.590	29.703
847.613	29.759
847.635	29.764
847.658	29.754
847.680	29.777
847.703	29.675
847.726	29.731
847.748	29.713
847.771	29.727
847.793	29.713
847.816	29.750
847.839	29.768
847.861	29.773
847.884	29.689
847.906	29.736
847.929	29.745
847.951	29.727
847.974	29.773
847.996	29.703
848.019	29.708
848.042	29.671
848.064	29.717
848.087	29.786
848.109	29.759
848.132	29.764
848.154	29.699
848.177	29.731
848.199	29.759
848.222	29.727
848.244	29.777
848.267	29.689
848.289	29.736
848.312	29.722
848.334	29.782
848.357	30.394
848.379	31.647
848.402	32.679
848.424	33.972
848.447	35.213
848.469	35.715
848.492	35.978
848.514	36.289
848.537	36.312
848.559	35.525
848.582	34.208
848.604	33.118
848.627	31.770
848.649	30.382
848.672	29.939
848.694	29.823
848.717	29.823
848.739	29.809
848.761	29.782
848.784	29.782
848.806	29.750
848.829	29.750
848.851	29.836
848.874	29.754
848.896	29.731
848.919	29.689
848.941	29.791
848.963	29.727
848.986	29.717
849.008	29.773
849.031	29.754
849.053	29.750
849.075	29.850
849.098	29.717
849.120	29.689
849.143	29.713
849.165	29.689
849.187	29.736
849.210	29.768
849.232	29.764
849.254	29.713
849.277	29.713
849.299	29.713
849.322	29.745
849.344	29.750
849.366	29.841
849.389	29.736
849.411	29.800
849.433	29.713
849.456	29.727
849.478	29.773
849.500	30.103
849.523	31.770
849.545	33.688
849.567	35.107
849.590	36.578
849.612	37.733
849.634	37.173
849.657	35.567
849.679	34.529
849.701	33.280
849.724	31.770
849.746	30.358
849.768	29.956
849.791	29.814
849.813	29.777
849.835	29.764
849.857	29.750
849.880	29.717
849.902	29.786
849.924	29.845
849.946	29.791
849.969	29.814
849.991	29.759
850.013	29.773
850.036	29.777
850.058	29.727
850.080	29.741
850.102	29.703
850.125	29.764
850.147	29.685
850.169	29.694
850.191	29.805
850.214	29.750
850.236	29.754
850.258	29.713
850.280	29.708
850.302	29.722
850.325	29.786
850.347	29.750
850.369	29.754
850.391	29.694
850.414	29.671
850.436	29.741
850.458	29.791
850.480	29.754
850.502	29.638
850.524	29.745
850.547	29.754
850.569	29.680
850.591	29.671
850.613	29.717
850.635	29.638
850.658	29.768
850.680	29.745
850.702	29.773
850.724	29.703
850.746	29.754
850.768	29.754
850.791	29.694
850.813	29.717
850.835	29.708
850.857	29.805
850.879	29.768
850.901	29.741
850.923	29.731
850.945	29.768
850.968	29.694
850.990	29.750
851.012	29.782
851.034	29.741
851.056	29.773
851.078	29.754
851.100	29.768
851.122	29.609
851.144	29.657
851.167	29.628
851.189	29.717
851.211	29.699
851.233	29.685
851.255	29.689
851.277	29.722
851.299	29.694
851.321	29.773
851.343	29.736
851.365	29.782
851.387	29.764
851.409	29.736
851.431	29.722
851.453	29.750
851.476	29.624
851.498	29.722
851.520	29.703
851.542	29.699
851.564	29.717
851.586	29.652
851.608	29.722
851.630	29.703
851.652	29.675
851.674	29.750
851.696	29.727
851.718	29.731
851.740	29.689
851.762	29.754
851.784	29.768
851.806	29.759
851.828	29.699
851.850	29.671
851.872	29.689
851.894	29.731
851.916	29.745
851.938	29.759
851.960	29.777
851.982	29.666
852.004	29.717
852.026	29.731
852.048	29.759
852.070	29.671
852.092	29.703
852.114	29.731
852.135	29.643
852.157	29.768
852.179	29.736
852.201	29.722
852.223	29.699
852.245	29.689
852.267	29.805
852.289	29.717
852.311	29.699
852.333	29.666
852.355	29.736
852.377	29.699
852.399	29.722
852.421	29.694
852.442	29.666
852.464	29.795
852.486	29.685
852.508	29.722
852.530	29.703
852.552	29.818
852.574	29.754
852.596	29.717
852.618	29.605
852.639	29.685
852.661	29.727
852.683	29.741
852.705	29.699
852.727	29.736
852.749	29.791
852.771	29.694
852.792	29.827
852.814	29.750
852.836	29.708
852.858	29.680
852.880	29.717
852.902	29.736
852.924	29.782
852.945	29.750
852.967	29.666
852.989	29.722
853.011	29.699
853.033	29.764
853.055	29.791
853.076	29.782
853.098	29.694
853.120	29.699
853.142	29.754
853.164	29.689
853.185	29.741
853.207	29.680
853.229	29.759
853.251	29.750
853.272	29.791
853.294	29.647
853.316	29.685
853.338	29.727
853.360	29.643
853.381	29.657
853.403	29.671
853.425	29.680
853.447	29.680
853.468	29.768
853.490	29.708
853.512	29.717
853.534	29.727
853.555	29.675
853.577	29.713
853.599	29.759
853.620	29.741
853.642	29.736
853.664	29.791
853.686	29.699
853.707	29.685
853.729	29.657
853.751	29.823
853.773	29.814
853.794	29.800
853.816	29.717
853.838	29.731
853.859	29.713
853.881	29.699
853.903	29.703
853.924	29.680
853.946	29.736
853.968	29.750
853.989	29.800
854.011	29.745
854.033	29.759
854.054	29.689
854.076	29.675
854.098	29.708
854.119	29.759
854.141	29.699
854.163	29.717
854.184	29.731
854.206	29.745
854.228	29.731
854.249	29.652
854.271	29.722
854.292	29.731
854.314	29.736
854.336	29.624
854.357	29.745
854.379	29.777
854.401	29.777
854.422	29.768
854.444	29.731
854.465	29.750
854.487	29.750
854.509	29.652
854.530	29.713
854.552	29.657
854.573	29.657
854.595	29.713
