Wavelength (nm)	Rel. spec. intensity (dB)
844.069	29.877
844.092	29.832
844.115	29.881
844.138	29.741
844.161	29.805
844.184	29.795
844.207	29.800
844.230	29.850
844.253	29.786
844.276	29.863
844.300	29.877
844.323	29.841
844.346	29.863
844.369	29.868
844.392	29.868
844.415	29.877
844.438	29.934
844.461	29.868
844.484	29.890
844.507	29.912
844.530	29.800
844.553	29.859
844.576	29.894
844.599	29.809
844.622	29.845
844.645	29.845
844.668	29.841
844.692	29.823
844.715	29.886
844.738	29.926
844.761	29.854
844.784	29.832
844.807	29.782
844.830	29.841
844.853	29.759
844.876	29.768
844.899	29.777
844.922	29.741
844.945	29.800
844.968	29.863
844.991	29.827
845.014	29.877
845.037	29.841
845.060	29.956
845.083	29.877
845.105	29.809
845.128	29.795
845.151	29.841
845.174	29.845
845.197	29.899
845.220	29.845
845.243	29.899
845.266	29.908
845.289	29.827
845.312	29.850
845.335	29.754
845.358	29.841
845.381	29.845
845.404	29.832
845.427	29.868
845.450	29.845
845.473	29.845
845.496	29.863
845.518	29.881
845.541	29.872
845.564	29.745
845.587	29.850
845.610	29.863
845.633	29.800
845.656	29.814
845.679	29.836
845.702	29.832
845.724	29.863
845.747	29.841
845.770	29.890
845.793	29.827
845.816	29.823
845.839	29.791
845.862	29.854
845.885	29.827
845.907	29.872
845.930	29.868
845.953	29.863
845.976	29.832
845.999	29.863
846.022	29.877
846.045	29.818
846.067	29.809
846.090	29.791
846.113	29.859
846.136	29.773
846.159	29.805
846.182	29.805
846.204	29.854
846.227	29.805
846.250	29.859
846.273	29.845
846.296	29.764
846.318	29.859
846.341	29.836
846.364	29.836
846.387	29.827
846.410	29.845
846.432	29.786
846.455	29.863
846.478	29.881
846.501	29.805
846.523	29.859
846.546	29.859
846.569	29.745
846.592	29.845
846.614	29.912
846.637	29.859
846.660	29.814
846.683	29.836
846.705	29.800
846.728	29.836
846.751	29.809
846.774	29.791
846.796	29.795
846.819	29.850
846.842	29.782
846.865	29.845
846.887	29.827
846.910	29.764
846.933	29.859
846.955	29.877
846.978	29.836
847.001	29.845
847.023	29.795
847.046	29.894
847.069	29.868
847.092	29.854
847.114	29.899
847.137	29.845
847.160	29.809
847.182	29.795
847.205	29.881
847.228	29.841
847.250	29.832
847.273	29.894
847.296	29.845
847.318	29.886
847.341	29.827
847.364	29.814
847.386	29.859
847.409	29.868
847.432	29.886
847.454	29.859
847.477	29.809
847.499	29.926
847.522	29.832
847.545	29.773
847.567	29.786
847.590	29.809
847.613	29.899
847.635	29.854
847.658	29.850
847.680	29.814
847.703	29.868
847.726	29.795
847.748	29.773
847.771	29.754
847.793	29.881
847.816	29.841
847.839	29.805
847.861	29.836
847.884	29.863
847.906	29.854
847.929	29.773
847.951	29.795
847.974	29.859
847.996	29.777
848.019	29.841
848.042	29.786
848.064	29.841
848.087	29.863
848.109	29.832
848.132	29.836
848.154	29.845
848.177	29.836
848.199	29.836
848.222	29.827
848.244	29.717
848.267	29.791
848.289	29.899
848.312	29.841
848.334	29.818
848.357	29.872
848.379	29.899
848.402	29.877
848.424	29.809
848.447	29.818
848.469	29.899
848.492	29.854
848.514	29.863
848.537	29.863
848.559	29.836
848.582	29.943
848.604	29.912
848.627	30.241
848.649	31.179
848.672	32.055
848.694	32.739
848.717	33.408
848.739	34.000
848.761	34.170
848.784	33.508
848.806	32.148
848.829	30.913
848.851	30.179
848.874	29.974
848.896	29.956
848.919	30.519
848.941	31.676
848.963	32.822
848.986	34.038
849.008	35.390
849.031	36.611
849.053	37.189
849.075	36.524
849.098	34.610
849.120	33.149
849.143	31.770
849.165	30.561
849.187	30.195
849.210	30.330
849.232	30.881
849.254	31.611
849.277	32.524
849.299	33.300
849.322	33.322
849.344	31.711
849.366	30.366
849.389	30.017
849.411	29.859
849.433	29.894
849.456	29.965
849.478	29.872
849.500	29.827
849.523	29.836
849.545	29.854
849.567	29.868
849.590	29.845
849.612	29.908
849.634	29.782
849.657	29.841
849.679	29.809
849.701	29.845
849.724	29.841
849.746	29.926
849.768	29.921
849.791	29.872
849.813	29.868
849.835	29.836
849.857	29.881
849.880	29.845
849.902	29.827
849.924	29.836
849.946	29.809
849.969	29.795
849.991	29.750
850.013	29.750
850.036	29.845
850.058	29.805
850.080	29.809
850.102	29.722
850.125	29.791
850.147	29.773
850.169	29.832
850.191	29.768
850.214	29.868
850.236	29.868
850.258	29.845
850.280	29.768
850.302	29.809
850.325	29.877
850.347	29.818
850.369	29.877
850.391	29.912
850.414	29.863
850.436	29.809
850.458	29.836
850.480	29.823
850.502	29.863
850.524	29.859
850.547	29.894
850.569	29.881
850.591	29.800
850.613	29.827
850.635	29.868
850.658	29.809
850.680	29.782
850.702	29.832
850.724	29.903
850.746	29.836
850.768	29.795
850.791	29.791
850.813	29.795
850.835	29.809
850.857	29.809
850.879	29.881
850.901	29.926
850.923	29.859
850.945	29.841
850.968	29.809
850.990	29.782
851.012	29.800
851.034	29.850
851.056	29.845
851.078	29.850
851.100	29.814
851.122	29.814
851.144	29.814
851.167	29.827
851.189	29.863
851.211	29.859
851.233	29.782
851.255	29.845
851.277	29.800
851.299	29.903
851.321	29.818
851.343	29.764
851.365	29.859
851.387	29.777
851.409	29.773
851.431	29.886
851.453	29.930
851.476	29.841
851.498	29.881
851.520	29.768
851.542	29.809
851.564	29.903
851.586	29.818
851.608	29.836
851.630	29.850
851.652	29.827
851.674	29.823
851.696	29.818
851.718	29.872
851.740	29.850
851.762	29.809
851.784	29.886
851.806	29.868
851.828	29.795
851.850	29.764
851.872	29.791
851.894	29.868
851.916	29.868
851.938	29.791
851.960	29.814
851.982	29.805
852.004	29.841
852.026	29.859
852.048	29.782
852.070	29.863
852.092	29.791
852.114	29.890
852.135	29.921
852.157	29.872
852.179	29.854
852.201	29.805
852.223	29.805
852.245	29.863
852.267	29.795
852.289	29.818
852.311	29.850
852.333	29.773
852.355	29.845
852.377	29.859
852.399	29.854
852.421	29.872
852.442	29.814
852.464	29.917
852.486	29.903
852.508	29.768
852.530	29.841
852.552	29.899
852.574	29.859
852.596	29.845
852.618	29.854
852.639	29.881
852.661	29.903
852.683	29.908
852.705	29.745
852.727	29.827
852.749	29.827
852.771	29.863
852.792	29.809
852.814	29.877
852.836	29.805
852.858	29.881
852.880	29.872
852.902	29.764
852.924	29.754
852.945	29.877
852.967	29.832
852.989	29.836
853.011	29.814
853.033	29.886
853.055	29.795
853.076	29.868
853.098	29.863
853.120	29.854
853.142	29.841
853.164	29.759
853.185	29.773
853.207	29.859
853.229	29.863
853.251	29.886
853.272	29.823
853.294	29.868
853.316	29.877
853.338	29.868
853.360	29.841
853.381	29.863
853.403	29.754
853.425	29.854
853.447	29.773
853.468	29.814
853.490	29.832
853.512	29.800
853.534	29.823
853.555	29.877
853.577	29.872
853.599	29.773
853.620	29.768
853.642	29.827
853.664	29.899
853.686	29.908
853.707	29.863
853.729	29.863
853.751	29.845
853.773	29.886
853.794	29.836
853.816	29.841
853.838	29.854
853.859	29.868
853.881	29.854
853.903	29.890
853.924	29.832
853.946	29.877
853.968	29.841
853.989	29.800
854.011	29.773
854.033	29.731
