Wavelength (nm)	Rel. spec. intensity (dB)
847.182	29.741
847.205	29.759
847.228	29.675
847.250	29.708
847.273	29.694
847.296	29.827
847.318	29.759
847.341	29.713
847.364	29.703
847.386	29.764
847.409	29.722
847.432	29.731
847.454	29.652
847.477	29.685
847.499	29.703
847.522	29.722
847.545	29.782
847.567	29.666
847.590	29.777
847.613	29.782
847.635	29.722
847.658	29.768
847.680	29.754
847.703	29.717
847.726	29.750
847.748	29.777
847.771	29.782
847.793	29.768
847.816	29.731
847.839	29.764
847.861	29.703
847.884	29.759
847.906	29.773
847.929	29.773
847.951	29.800
847.974	29.713
847.996	29.782
848.019	29.786
848.042	29.717
848.064	29.754
848.087	29.795
848.109	29.722
848.132	29.736
848.154	29.699
848.177	29.795
848.199	29.845
848.222	29.741
848.244	29.731
848.267	29.638
848.289	29.619
848.312	29.666
848.334	29.791
848.357	29.777
848.379	29.759
848.402	29.657
848.424	29.727
848.447	29.717
848.469	29.750
848.492	29.773
848.514	29.773
848.537	29.777
848.559	29.703
848.582	29.754
848.604	29.786
848.627	29.708
848.649	29.750
848.672	29.764
848.694	29.657
848.717	29.741
848.739	29.708
848.761	29.745
848.784	29.764
848.806	29.722
848.829	29.736
848.851	29.759
848.874	29.768
848.896	29.703
848.919	29.832
848.941	29.759
848.963	29.731
848.986	29.722
849.008	29.754
849.031	29.680
849.053	29.782
849.075	29.868
849.098	29.754
849.120	29.717
849.143	29.777
849.165	29.717
849.187	29.643
849.210	29.814
849.232	29.859
849.254	29.694
849.277	29.759
849.299	29.764
849.322	29.782
849.344	29.818
849.366	29.845
849.389	29.786
849.411	29.754
849.433	29.708
849.456	29.727
849.478	29.764
849.500	29.768
849.523	29.764
849.545	29.773
849.567	29.786
849.590	29.750
849.612	29.814
849.634	29.782
849.657	29.791
849.679	29.782
849.701	29.713
849.724	29.708
849.746	29.727
849.768	29.675
849.791	29.777
849.813	29.731
849.835	29.689
849.857	29.786
849.880	29.745
849.902	29.731
849.924	29.754
849.946	29.741
849.969	29.708
849.991	29.722
850.013	29.699
850.036	29.731
850.058	29.818
850.080	29.699
850.102	29.699
850.125	29.713
850.147	29.727
850.169	29.713
850.191	29.727
850.214	29.768
850.236	29.699
850.258	29.759
850.280	29.699
850.302	29.750
850.325	29.759
850.347	29.694
850.369	29.731
850.391	29.750
850.414	29.731
850.436	29.759
850.458	29.713
850.480	29.722
850.502	29.795
850.524	29.750
850.547	29.736
850.569	29.727
850.591	29.750
850.613	29.782
850.635	29.832
850.658	29.800
850.680	29.791
850.702	29.754
850.724	29.832
850.746	29.786
850.768	29.773
850.791	29.689
850.813	29.689
850.835	29.657
850.857	29.754
850.879	29.745
850.901	29.708
850.923	29.661
850.945	29.736
850.968	29.750
850.990	29.652
851.012	29.745
851.034	29.727
851.056	29.768
851.078	29.754
851.100	29.759
851.122	29.791
851.144	29.703
851.167	29.736
851.189	29.750
851.211	29.795
851.233	29.768
851.255	29.713
851.277	29.814
851.299	29.736
851.321	29.745
851.343	29.754
851.365	29.745
851.387	29.699
851.409	29.791
851.431	29.727
851.453	29.652
851.476	29.731
851.498	29.754
851.520	29.741
851.542	29.795
851.564	29.768
851.586	29.685
851.608	29.741
851.630	29.823
851.652	29.805
851.674	29.827
851.696	30.145
851.718	30.899
851.740	31.471
851.762	32.049
851.784	32.227
851.806	31.196
851.828	30.473
851.850	29.978
851.872	29.894
851.894	29.890
851.916	29.795
851.938	29.881
851.960	29.717
851.982	29.845
852.004	29.978
852.026	30.515
852.048	31.392
852.070	32.744
852.092	34.193
852.114	35.965
852.135	37.162
852.157	37.799
852.179	38.102
852.201	37.606
852.223	36.223
852.245	34.914
852.267	33.587
852.289	32.365
852.311	31.092
852.333	30.253
852.355	29.872
852.377	29.859
852.399	29.841
852.421	30.111
852.442	30.856
852.464	31.853
852.486	33.045
852.508	34.268
852.530	35.058
852.552	35.135
852.574	34.276
852.596	33.064
852.618	31.798
852.639	30.402
852.661	29.926
852.683	29.768
852.705	29.768
852.727	29.786
852.749	29.832
852.771	29.791
852.792	29.814
852.814	29.741
852.836	29.786
852.858	29.800
852.880	29.850
852.902	29.768
852.924	29.703
852.945	29.736
852.967	29.764
852.989	29.713
853.011	29.764
853.033	29.741
853.055	29.791
853.076	29.731
853.098	29.745
853.120	29.805
853.142	29.759
853.164	29.800
853.185	29.750
853.207	29.764
853.229	29.791
853.251	29.745
853.272	29.795
853.294	29.741
853.316	29.731
853.338	29.841
853.360	29.689
853.381	29.805
853.403	29.741
853.425	29.782
853.447	29.823
853.468	29.713
853.490	29.773
853.512	29.717
853.534	29.814
853.555	29.818
853.577	29.814
853.599	29.786
853.620	29.699
853.642	29.773
853.664	29.795
853.686	29.759
853.707	29.754
853.729	29.795
853.751	29.708
853.773	29.745
853.794	29.727
853.816	29.800
853.838	29.736
853.859	29.759
853.881	29.782
853.903	29.736
853.924	29.782
853.946	29.689
853.968	29.666
853.989	29.768
854.011	29.689
854.033	29.845
854.054	29.736
854.076	29.736
854.098	29.768
854.119	29.791
854.141	29.768
854.163	29.791
854.184	29.727
854.206	29.782
854.228	29.773
854.249	29.791
854.271	29.809
854.292	29.754
854.314	29.764
854.336	29.809
854.357	29.750
854.379	29.736
854.401	29.736
854.422	29.782
854.444	29.736
854.465	29.754
854.487	29.694
854.509	29.741
854.530	29.708
854.552	29.782
854.573	29.768
854.595	29.754
854.617	29.823
854.638	29.759
854.660	29.750
854.681	29.768
854.703	29.722
854.724	29.745
854.746	29.768
854.767	29.722
854.789	29.786
854.811	29.782
854.832	29.731
854.854	29.741
854.875	29.722
854.897	29.764
854.918	29.731
854.940	29.791
854.961	29.786
854.983	29.727
855.004	29.741
855.026	29.768
855.047	29.717
855.069	29.713
855.090	29.694
855.112	29.703
855.133	29.689
855.155	29.689
855.176	29.722
855.198	29.736
855.219	29.736
855.241	29.703
855.262	29.741
855.284	29.791
855.305	29.800
855.327	29.791
855.348	29.689
855.370	29.741
855.391	29.791
855.413	29.680
855.434	29.759
855.456	29.722
855.477	29.717
855.498	29.736
855.520	29.731
855.541	29.736
855.563	29.675
855.584	29.791
855.606	29.786
855.627	29.782
855.648	29.741
855.670	29.722
855.691	29.805
855.713	29.722
855.734	29.795
855.755	29.713
855.777	29.754
855.798	29.759
855.820	29.782
855.841	29.750
855.862	29.759
855.884	29.745
855.905	29.827
855.927	29.782
855.948	29.680
855.969	29.805
855.991	29.722
856.012	29.791
856.033	29.685
856.055	29.791
856.076	29.694
856.098	29.722
856.119	29.717
856.140	29.809
856.162	29.731
856.183	29.745
856.204	29.727
856.226	29.703
856.247	29.782
856.268	29.805
856.290	29.717
856.311	29.791
856.332	29.773
856.354	29.759
856.375	29.800
856.396	29.773
856.417	29.736
856.439	29.708
856.460	29.671
856.481	29.694
856.503	29.703
856.524	29.768
856.545	29.741
856.566	29.703
856.588	29.736
856.609	29.795
856.630	29.713
856.652	29.741
856.673	29.773
856.694	29.754
856.715	29.703
856.737	29.689
856.758	29.791
856.779	29.768
856.800	29.782
856.822	29.759
856.843	29.685
856.864	29.795
856.885	29.773
856.907	29.777
856.928	29.795
856.949	29.745
856.970	29.680
856.991	29.754
857.013	29.773
857.034	29.699
857.055	29.717
857.076	29.736
857.097	29.759
857.119	29.699
857.140	29.666
857.161	29.791
