Wavelength (nm)	Rel. spec. intensity (dB)
845.816	29.827
845.839	29.809
845.862	29.814
845.885	29.854
845.907	29.777
845.930	29.868
845.953	29.791
845.976	29.832
845.999	29.777
846.022	29.899
846.045	29.836
846.067	29.791
846.090	29.890
846.113	29.886
846.136	29.894
846.159	29.814
846.182	29.850
846.204	29.818
846.227	29.786
846.250	29.854
846.273	29.832
846.296	29.832
846.318	29.795
846.341	29.800
846.364	29.805
846.387	29.841
846.410	29.854
846.432	29.877
846.455	29.845
846.478	29.868
846.501	29.863
846.523	29.786
846.546	29.809
846.569	29.872
846.592	29.795
846.614	29.777
846.637	29.845
846.660	29.845
846.683	29.845
846.705	29.854
846.728	29.823
846.751	29.764
846.774	29.832
846.796	29.814
846.819	29.845
846.842	29.845
846.865	29.841
846.887	29.805
846.910	29.850
846.933	29.832
846.955	29.832
846.978	29.912
847.001	29.899
847.023	29.809
847.046	29.791
847.069	29.836
847.092	29.814
847.114	29.845
847.137	29.754
847.160	29.782
847.182	29.850
847.205	29.850
847.228	29.805
847.250	29.827
847.273	29.827
847.296	29.809
847.318	29.845
847.341	29.814
847.364	29.841
847.386	29.841
847.409	29.841
847.432	29.850
847.454	29.854
847.477	29.809
847.499	29.773
847.522	29.823
847.545	29.805
847.567	29.863
847.590	29.863
847.613	29.832
847.635	29.850
847.658	29.877
847.680	29.782
847.703	29.908
847.726	29.777
847.748	29.854
847.771	29.827
847.793	29.854
847.816	29.782
847.839	29.800
847.861	29.764
847.884	29.854
847.906	29.872
847.929	29.894
847.951	29.890
847.974	29.805
847.996	29.805
848.019	29.863
848.042	29.841
848.064	29.814
848.087	29.773
848.109	29.768
848.132	29.863
848.154	29.854
848.177	29.890
848.199	29.736
848.222	29.736
848.244	29.814
848.267	29.805
848.289	29.809
848.312	29.845
848.334	29.805
848.357	29.809
848.379	29.827
848.402	29.908
848.424	29.777
848.447	29.836
848.469	29.795
848.492	29.814
848.514	29.881
848.537	29.894
848.559	29.868
848.582	29.877
848.604	29.912
848.627	29.764
848.649	29.881
848.672	29.850
848.694	29.908
848.717	29.827
848.739	29.854
848.761	29.764
848.784	29.894
848.806	29.845
848.829	29.894
848.851	29.841
848.874	29.841
848.896	29.926
848.919	29.814
848.941	29.854
848.963	29.731
848.986	29.768
849.008	29.890
849.031	29.832
849.053	29.777
849.075	29.823
849.098	29.850
849.120	29.827
849.143	29.841
849.165	29.886
849.187	29.881
849.210	29.881
849.232	29.845
849.254	29.877
849.277	29.854
849.299	29.863
849.322	29.845
849.344	29.868
849.366	29.917
849.389	29.850
849.411	29.894
849.433	29.841
849.456	29.809
849.478	29.850
849.500	29.814
849.523	29.827
849.545	29.863
849.567	29.836
849.590	29.863
849.612	29.827
849.634	29.863
849.657	29.805
849.679	29.859
849.701	29.841
849.724	29.903
849.746	29.850
849.768	29.908
849.791	29.823
849.813	29.863
849.835	29.978
849.857	30.330
849.880	30.924
849.902	31.544
849.924	32.219
849.946	32.871
849.969	31.981
849.991	30.622
850.013	30.133
850.036	29.930
850.058	29.908
850.080	29.917
850.102	29.939
850.125	29.903
850.147	29.934
850.169	30.228
850.191	30.986
850.214	32.068
850.236	32.971
850.258	34.024
850.280	35.224
850.302	36.353
850.325	35.952
850.347	35.615
850.369	36.018
850.391	36.863
850.414	37.065
850.436	35.818
850.458	34.009
850.480	32.586
850.502	31.126
850.524	30.370
850.547	30.082
850.569	30.004
850.591	30.030
850.613	30.175
850.635	30.500
850.658	31.297
850.680	32.263
850.702	33.600
850.724	35.139
850.746	36.797
850.768	37.744
850.791	38.165
850.813	38.717
850.835	38.712
850.857	37.880
850.879	35.821
850.901	34.200
850.923	32.388
850.945	30.667
850.968	30.154
850.990	30.082
851.012	29.894
851.034	29.903
851.056	29.930
851.078	30.039
851.100	30.774
851.122	31.761
851.144	32.577
851.167	33.560
851.189	34.628
851.211	34.707
851.233	33.402
851.255	31.408
851.277	30.195
851.299	30.017
851.321	29.961
851.343	29.877
851.365	29.800
851.387	29.917
851.409	29.939
851.431	29.800
851.453	29.881
851.476	29.863
851.498	29.917
851.520	29.850
851.542	29.877
851.564	29.805
851.586	29.823
851.608	29.827
851.630	29.868
851.652	29.814
851.674	29.827
851.696	29.917
851.718	29.827
851.740	29.800
851.762	29.845
851.784	29.890
851.806	29.827
851.828	29.854
851.850	29.908
851.872	29.859
851.894	29.881
851.916	29.827
851.938	29.845
851.960	29.877
851.982	29.868
852.004	29.894
852.026	29.805
852.048	29.809
852.070	29.868
852.092	29.868
852.114	29.836
852.135	29.903
852.157	29.877
852.179	29.859
852.201	29.800
852.223	29.881
852.245	29.800
852.267	29.859
852.289	29.823
852.311	29.930
852.333	29.836
852.355	29.836
852.377	29.877
852.399	29.845
852.421	29.863
852.442	29.903
852.464	29.872
852.486	29.832
852.508	29.832
852.530	29.795
852.552	29.926
852.574	29.854
852.596	29.894
852.618	29.759
852.639	29.854
852.661	29.850
852.683	29.845
852.705	29.854
852.727	29.800
852.749	29.850
852.771	29.850
852.792	29.827
852.814	29.868
852.836	29.868
852.858	29.845
852.880	29.814
852.902	29.768
852.924	29.786
852.945	29.832
852.967	29.827
852.989	29.872
853.011	29.881
853.033	29.872
853.055	29.823
853.076	29.832
853.098	29.791
853.120	29.814
853.142	29.832
853.164	29.894
853.185	29.823
853.207	29.809
853.229	29.773
853.251	29.827
853.272	29.894
853.294	29.926
853.316	29.881
853.338	29.868
853.360	29.859
853.381	29.899
853.403	29.850
853.425	29.868
853.447	29.791
853.468	29.827
853.490	29.827
853.512	29.841
853.534	29.805
853.555	29.894
853.577	29.773
853.599	29.863
853.620	29.809
853.642	29.859
853.664	29.859
853.686	29.832
853.707	29.731
853.729	29.863
853.751	29.912
853.773	29.818
853.794	29.863
853.816	29.894
853.838	29.832
853.859	29.854
853.881	29.877
853.903	29.827
853.924	29.814
853.946	29.823
853.968	29.795
853.989	29.877
854.011	29.868
854.033	29.859
854.054	29.818
854.076	29.854
854.098	29.805
854.119	29.782
854.141	29.908
854.163	29.850
854.184	29.877
854.206	29.881
854.228	29.841
854.249	29.800
854.271	29.877
854.292	29.859
854.314	29.863
854.336	29.836
854.357	29.854
854.379	29.841
854.401	29.850
854.422	29.809
854.444	29.809
854.465	29.845
854.487	29.832
854.509	29.877
854.530	29.809
854.552	29.908
854.573	29.899
854.595	29.881
854.617	29.939
854.638	29.823
854.660	29.823
854.681	29.886
854.703	29.854
854.724	29.791
854.746	29.868
854.767	29.823
854.789	29.805
854.811	29.854
854.832	29.795
854.854	29.908
854.875	29.791
854.897	29.845
854.918	29.818
854.940	29.886
854.961	29.836
854.983	29.841
855.004	29.836
855.026	29.845
855.047	29.809
855.069	29.850
855.090	29.795
855.112	29.791
855.133	29.823
855.155	29.854
855.176	29.782
855.198	29.832
855.219	29.850
855.241	29.863
855.262	29.818
855.284	29.854
855.305	29.912
855.327	29.845
855.348	29.764
855.370	29.823
855.391	29.917
855.413	29.886
855.434	29.854
855.456	29.827
855.477	29.786
855.498	29.823
855.520	29.850
855.541	29.845
855.563	29.850
855.584	29.926
855.606	29.881
855.627	29.854
855.648	29.868
855.670	29.881
855.691	29.836
855.713	29.805
855.734	29.814
855.755	29.886
855.777	29.827
855.798	29.773
