Wavelength (nm)	Rel. spec. intensity (dB)
844.300	29.850
844.323	29.800
844.346	29.845
844.369	29.823
844.392	29.800
844.415	29.868
844.438	29.894
844.461	29.841
844.484	29.836
844.507	29.845
844.530	29.786
844.553	29.872
844.576	29.827
844.599	29.850
844.622	29.845
844.645	29.859
844.668	29.832
844.692	29.877
844.715	29.827
844.738	29.764
844.761	29.754
844.784	29.881
844.807	29.863
844.830	29.845
844.853	29.850
844.876	29.881
844.899	29.863
844.922	29.832
844.945	29.809
844.968	29.863
844.991	29.868
845.014	29.877
845.037	29.736
845.060	29.809
845.083	29.764
845.105	29.886
845.128	29.854
845.151	29.859
845.174	29.841
845.197	29.841
845.220	29.800
845.243	29.795
845.266	29.795
845.289	29.818
845.312	29.845
845.335	29.845
845.358	29.800
845.381	29.877
845.404	29.881
845.427	29.899
845.450	29.930
845.473	29.832
845.496	29.814
845.518	29.850
845.541	29.845
845.564	29.899
845.587	29.845
845.610	29.777
845.633	29.782
845.656	29.795
845.679	29.859
845.702	29.845
845.724	29.800
845.747	29.859
845.770	29.845
845.793	29.786
845.816	29.863
845.839	29.777
845.862	29.791
845.885	29.854
845.907	29.863
845.930	29.850
845.953	29.886
845.976	29.795
845.999	29.943
846.022	29.809
846.045	29.890
846.067	29.854
846.090	29.841
846.113	29.854
846.136	29.823
846.159	29.818
846.182	29.836
846.204	29.814
846.227	29.800
846.250	29.832
846.273	29.791
846.296	29.809
846.318	29.786
846.341	29.868
846.364	29.863
846.387	29.809
846.410	29.782
846.432	29.859
846.455	29.877
846.478	29.859
846.501	29.809
846.523	29.800
846.546	29.800
846.569	29.805
846.592	29.854
846.614	29.809
846.637	29.832
846.660	29.845
846.683	29.890
846.705	29.845
846.728	29.845
846.751	29.841
846.774	29.736
846.796	29.850
846.819	29.795
846.842	29.791
846.865	29.805
846.887	29.832
846.910	29.809
846.933	29.800
846.955	29.768
846.978	29.881
847.001	29.827
847.023	29.859
847.046	29.863
847.069	29.863
847.092	29.832
847.114	29.814
847.137	29.832
847.160	29.841
847.182	29.782
847.205	29.814
847.228	29.759
847.250	29.877
847.273	29.814
847.296	29.859
847.318	29.836
847.341	29.795
847.364	29.850
847.386	29.894
847.409	29.818
847.432	29.877
847.454	29.917
847.477	29.845
847.499	29.827
847.522	29.854
847.545	29.832
847.567	29.841
847.590	29.854
847.613	29.899
847.635	29.921
847.658	29.863
847.680	29.791
847.703	29.823
847.726	29.750
847.748	29.845
847.771	29.863
847.793	29.894
847.816	29.782
847.839	29.795
847.861	29.809
847.884	29.912
847.906	29.850
847.929	29.872
847.951	29.886
847.974	29.872
847.996	29.814
848.019	29.836
848.042	29.832
848.064	29.791
848.087	29.768
848.109	29.877
848.132	29.859
848.154	29.805
848.177	29.823
848.199	29.859
848.222	29.854
848.244	29.908
848.267	29.877
848.289	29.868
848.312	29.800
848.334	29.827
848.357	29.832
848.379	29.814
848.402	29.841
848.424	29.872
848.447	29.912
848.469	29.854
848.492	29.754
848.514	29.814
848.537	29.814
848.559	29.809
848.582	29.881
848.604	29.903
848.627	29.886
848.649	29.854
848.672	29.863
848.694	29.863
848.717	29.877
848.739	29.845
848.761	29.850
848.784	29.805
848.806	29.894
848.829	30.141
848.851	30.924
848.874	31.881
848.896	32.980
848.919	34.255
848.941	35.316
848.963	35.668
848.986	36.156
849.008	36.064
849.031	35.060
849.053	33.306
849.075	31.816
849.098	30.641
849.120	30.183
849.143	30.086
849.165	30.362
849.187	31.443
849.210	32.643
849.232	33.930
849.254	35.175
849.277	36.470
849.299	37.381
849.322	37.292
849.344	35.719
849.366	33.985
849.389	32.420
849.411	30.806
849.433	30.187
849.456	30.013
849.478	29.948
849.500	29.969
849.523	30.461
849.545	31.271
849.567	31.953
849.590	31.553
849.612	30.228
849.634	29.969
849.657	29.934
849.679	29.886
849.701	29.863
849.724	29.814
849.746	29.814
849.768	29.881
849.791	29.872
849.813	29.868
849.835	29.899
849.857	29.877
849.880	29.894
849.902	29.854
849.924	29.863
849.946	29.899
849.969	29.921
849.991	29.841
850.013	29.868
850.036	29.827
850.058	29.899
850.080	29.908
850.102	29.890
850.125	29.894
850.147	29.773
850.169	29.877
850.191	29.845
850.214	29.854
850.236	29.890
850.258	29.845
850.280	29.832
850.302	29.868
850.325	29.795
850.347	29.845
850.369	29.872
850.391	29.736
850.414	29.854
850.436	29.921
850.458	29.881
850.480	29.859
850.502	29.845
850.524	29.899
850.547	29.850
850.569	29.795
850.591	29.868
850.613	29.836
850.635	29.759
850.658	29.877
850.680	29.750
850.702	29.836
850.724	29.805
850.746	29.859
850.768	29.805
850.791	29.850
850.813	29.836
850.835	29.845
850.857	29.841
850.879	29.868
850.901	29.850
850.923	29.926
850.945	29.832
850.968	29.850
850.990	29.845
851.012	29.886
851.034	29.823
851.056	29.854
851.078	29.845
851.100	29.854
851.122	29.809
851.144	29.850
851.167	29.814
851.189	29.881
851.211	29.782
851.233	29.836
851.255	29.877
851.277	29.903
851.299	29.863
851.321	29.836
851.343	29.881
851.365	29.809
851.387	29.814
851.409	29.859
851.431	29.809
851.453	29.845
851.476	29.809
851.498	29.854
851.520	29.786
851.542	29.759
851.564	29.818
851.586	29.908
851.608	29.832
851.630	29.841
851.652	29.903
851.674	29.764
851.696	29.741
851.718	29.818
851.740	29.809
851.762	29.877
851.784	29.859
851.806	29.877
851.828	29.845
851.850	29.800
851.872	29.827
851.894	29.827
851.916	29.750
851.938	29.886
851.960	29.908
851.982	29.872
852.004	29.786
852.026	29.836
852.048	29.832
852.070	29.814
852.092	29.805
852.114	29.917
852.135	29.827
852.157	29.881
852.179	29.786
852.201	29.859
852.223	29.859
852.245	29.845
852.267	29.791
852.289	29.850
852.311	29.903
852.333	29.886
852.355	29.854
852.377	29.827
852.399	29.899
852.421	29.881
852.442	29.814
852.464	29.863
852.486	29.759
852.508	29.854
852.530	29.850
852.552	29.841
852.574	29.845
852.596	29.795
852.618	29.841
852.639	29.841
852.661	29.805
852.683	29.854
852.705	29.759
852.727	29.859
852.749	29.827
852.771	29.814
852.792	29.823
852.814	29.800
852.836	29.782
852.858	29.868
852.880	29.877
852.902	29.764
852.924	29.827
852.945	29.782
852.967	29.845
852.989	29.881
853.011	29.768
853.033	29.859
853.055	29.868
853.076	29.863
853.098	29.868
853.120	29.854
853.142	29.841
853.164	29.850
853.185	29.850
853.207	29.881
853.229	29.903
853.251	29.859
853.272	29.863
853.294	29.877
853.316	29.832
853.338	29.827
853.360	29.722
853.381	29.777
853.403	29.836
853.425	29.809
853.447	29.832
853.468	29.850
853.490	29.886
853.512	29.841
853.534	29.908
853.555	29.877
853.577	29.877
853.599	29.773
853.620	29.768
853.642	29.832
853.664	29.868
853.686	29.863
853.707	29.894
853.729	29.791
853.751	29.845
853.773	29.899
853.794	29.863
853.816	29.868
853.838	29.845
853.859	29.832
853.881	29.899
853.903	29.818
853.924	29.823
853.946	29.841
853.968	29.764
853.989	29.836
854.011	29.791
854.033	29.859
854.054	29.800
854.076	29.859
854.098	29.836
854.119	29.863
854.141	29.832
854.163	29.845
854.184	29.863
854.206	29.868
854.228	29.845
854.249	29.868
854.271	29.841
854.292	29.814
