Wavelength (nm)	Rel. spec. intensity (dB)
838.832	29.741
838.856	29.777
838.880	29.764
838.904	29.722
838.928	29.764
838.952	29.777
838.975	29.791
838.999	29.713
839.023	29.671
839.047	29.768
839.071	29.827
839.094	29.773
839.118	29.850
839.142	29.845
839.166	29.845
839.190	29.814
839.213	29.823
839.237	29.777
839.261	29.814
839.285	29.750
839.309	29.717
839.332	29.689
839.356	29.764
839.380	29.764
839.404	29.800
839.427	29.773
839.451	29.786
839.475	29.759
839.499	29.773
839.522	29.754
839.546	29.814
839.570	29.786
839.594	29.745
839.617	29.791
839.641	29.699
839.665	29.836
839.689	29.754
839.712	29.764
839.736	29.782
839.760	29.754
839.784	29.841
839.807	29.809
839.831	29.759
839.855	29.800
839.878	29.859
839.902	29.736
839.926	29.764
839.949	29.768
839.973	29.805
839.997	29.759
840.021	29.777
840.044	29.764
840.068	29.713
840.091	29.800
840.115	29.841
840.139	29.764
840.163	29.800
840.186	29.805
840.210	29.809
840.233	29.795
840.257	29.773
840.281	29.708
840.304	29.782
840.328	29.727
840.352	29.717
840.375	29.764
840.399	29.759
840.423	29.731
840.446	29.745
840.470	29.764
840.493	29.782
840.517	29.854
840.541	29.736
840.564	29.800
840.588	29.754
840.612	29.722
840.635	29.741
840.659	29.750
840.682	29.768
840.706	29.759
840.729	29.850
840.753	29.827
840.777	29.777
840.800	29.786
840.824	29.754
840.847	29.814
840.871	29.782
840.894	29.827
840.918	29.814
840.942	29.773
840.965	29.731
840.989	29.773
841.012	29.782
841.036	29.805
841.059	29.689
841.083	29.786
841.106	29.722
841.130	29.722
841.153	29.841
841.177	29.754
841.200	29.727
841.224	29.773
841.247	29.764
841.271	29.759
841.294	29.805
841.318	29.786
841.341	29.768
841.365	29.786
841.388	29.680
841.412	29.795
841.435	29.800
841.459	29.722
841.482	29.827
841.506	29.764
841.529	29.805
841.553	29.800
841.576	29.818
841.600	29.750
841.623	29.832
841.647	29.768
841.670	29.832
841.694	29.800
841.717	29.754
841.741	29.741
841.764	29.741
841.787	29.786
841.811	29.814
841.834	29.782
841.858	29.791
841.881	29.736
841.905	29.850
841.928	29.717
841.951	29.827
841.975	29.764
841.998	29.699
842.022	29.795
842.045	29.814
842.068	29.782
842.092	29.818
842.115	29.786
842.139	29.841
842.162	29.741
842.185	29.764
842.209	29.736
842.232	29.708
842.255	29.764
842.279	29.741
842.302	29.703
842.326	29.745
842.349	29.827
842.372	29.809
842.396	29.722
842.419	29.768
842.442	29.777
842.466	29.750
842.489	29.800
842.512	29.759
842.536	29.786
842.559	29.777
842.582	29.809
842.606	29.805
842.629	29.786
842.652	29.795
842.676	29.768
842.699	29.786
842.722	29.727
842.746	29.741
842.769	29.713
842.792	29.754
842.815	29.745
842.839	29.814
842.862	29.699
842.885	29.795
842.909	29.777
842.932	29.741
842.955	29.713
842.978	29.795
843.002	29.754
843.025	29.782
843.048	29.750
843.071	29.823
843.095	29.759
843.118	29.773
843.141	29.708
843.164	29.814
843.188	29.727
843.211	29.731
843.234	29.694
843.257	29.731
843.281	29.750
843.304	29.727
843.327	29.671
843.350	29.703
843.374	29.675
843.397	29.773
843.420	29.764
843.443	29.736
843.466	29.764
843.490	29.750
843.513	29.717
843.536	29.736
843.559	29.782
843.582	29.854
843.606	29.800
843.629	29.800
843.652	29.841
843.675	29.745
843.698	29.786
843.721	29.795
843.745	29.805
843.768	29.777
843.791	29.722
843.814	29.899
843.837	29.777
843.860	29.745
843.883	29.708
843.907	29.741
843.930	29.745
843.953	29.703
843.976	29.764
843.999	29.754
844.022	29.777
844.045	29.800
844.069	29.750
844.092	29.731
844.115	29.877
844.138	29.827
844.161	29.731
844.184	29.832
844.207	29.805
844.230	29.773
844.253	29.741
844.276	29.777
844.300	29.791
844.323	29.809
844.346	29.754
844.369	29.777
844.392	29.768
844.415	29.741
844.438	29.736
844.461	29.722
844.484	29.708
844.507	29.685
844.530	29.727
844.553	29.795
844.576	29.708
844.599	29.754
844.622	29.722
844.645	29.845
844.668	29.717
844.692	29.764
844.715	29.823
844.738	29.823
844.761	29.791
844.784	29.786
844.807	29.786
844.830	29.759
844.853	29.722
844.876	29.745
844.899	29.736
844.922	29.708
844.945	29.791
844.968	29.708
844.991	29.736
845.014	29.773
845.037	29.782
845.060	29.754
845.083	29.745
845.105	29.731
845.128	29.786
845.151	29.727
845.174	29.791
845.197	29.754
845.220	29.731
845.243	29.800
845.266	29.827
845.289	29.805
845.312	29.782
845.335	29.782
845.358	29.754
845.381	29.750
845.404	29.731
845.427	29.745
845.450	29.745
845.473	29.722
845.496	29.768
845.518	29.805
845.541	29.727
845.564	29.754
845.587	29.717
845.610	29.745
845.633	29.754
845.656	29.741
845.679	29.722
845.702	29.782
845.724	29.745
845.747	29.759
845.770	29.832
845.793	29.727
845.816	29.722
845.839	29.745
845.862	29.773
845.885	29.782
845.907	29.832
845.930	29.791
845.953	29.800
845.976	29.841
845.999	29.791
846.022	29.764
846.045	29.759
846.067	29.731
846.090	29.689
846.113	29.836
846.136	29.777
846.159	29.786
846.182	29.791
846.204	29.764
846.227	29.754
846.250	29.745
846.273	29.731
846.296	29.773
846.318	29.736
846.341	29.685
846.364	29.786
846.387	29.754
846.410	29.741
846.432	29.727
846.455	29.814
846.478	29.717
846.501	29.689
846.523	29.741
846.546	29.823
846.569	29.773
846.592	29.741
846.614	29.814
846.637	29.727
846.660	29.759
846.683	29.823
846.705	29.777
846.728	29.768
846.751	29.768
846.774	29.809
846.796	29.827
846.819	29.773
846.842	29.777
846.865	29.800
846.887	29.791
846.910	29.671
846.933	29.699
846.955	29.764
846.978	29.795
847.001	29.841
847.023	29.823
847.046	29.745
847.069	29.722
847.092	29.791
847.114	29.795
847.137	29.750
847.160	29.777
847.182	29.818
847.205	29.731
847.228	29.736
847.250	29.768
847.273	29.773
847.296	29.717
847.318	29.841
847.341	29.764
847.364	29.741
847.386	29.694
847.409	29.795
847.432	29.750
847.454	29.777
847.477	29.805
847.499	29.795
847.522	29.795
847.545	29.777
847.567	29.741
847.590	29.750
847.613	29.713
847.635	29.777
847.658	29.764
847.680	29.786
847.703	29.708
847.726	29.795
847.748	29.809
847.771	29.773
847.793	29.754
847.816	29.699
847.839	29.741
847.861	29.731
847.884	29.800
847.906	29.699
847.929	29.759
847.951	29.791
847.974	29.727
847.996	29.754
848.019	29.800
848.042	29.754
848.064	29.736
848.087	29.791
848.109	29.717
848.132	29.759
848.154	29.764
848.177	29.699
848.199	29.759
848.222	29.800
848.244	29.773
848.267	29.727
848.289	29.791
848.312	29.722
848.334	29.741
848.357	29.777
848.379	29.731
848.402	29.699
848.424	29.731
848.447	29.731
848.469	29.814
848.492	29.791
848.514	29.731
848.537	29.814
848.559	29.754
848.582	29.736
848.604	29.736
848.627	29.717
848.649	29.791
848.672	29.818
848.694	29.736
848.717	29.741
848.739	29.741
848.761	29.777
848.784	29.823
848.806	29.768
