Wavelength (nm)	Rel. spec. intensity (dB)
848.559	29.809
848.582	29.773
848.604	29.818
848.627	29.786
848.649	29.745
848.672	29.777
848.694	29.764
848.717	29.786
848.739	29.717
848.761	29.786
848.784	29.736
848.806	29.722
848.829	29.708
848.851	29.764
848.874	29.745
848.896	29.727
848.919	29.768
848.941	29.727
848.963	29.736
848.986	29.750
849.008	29.791
849.031	29.722
849.053	29.759
849.075	29.754
849.098	29.736
849.120	29.805
849.143	29.736
849.165	29.741
849.187	29.736
849.210	29.759
849.232	29.764
849.254	29.786
849.277	29.759
849.299	29.773
849.322	29.745
849.344	29.727
849.366	29.717
849.389	29.699
849.411	29.791
849.433	29.823
849.456	29.759
849.478	29.809
849.500	29.727
849.523	29.764
849.545	29.699
849.567	29.745
849.590	29.773
849.612	29.800
849.634	29.713
849.657	29.777
849.679	29.786
849.701	29.741
849.724	29.777
849.746	29.722
849.768	29.717
849.791	29.777
849.813	29.741
849.835	29.814
849.857	29.805
849.880	29.736
849.902	29.814
849.924	29.703
849.946	29.745
849.969	29.722
849.991	29.795
850.013	29.685
850.036	29.818
850.058	29.818
850.080	29.736
850.102	29.731
850.125	29.694
850.147	29.722
850.169	29.750
850.191	29.759
850.214	29.773
850.236	29.727
850.258	29.764
850.280	29.764
850.302	29.717
850.325	29.795
850.347	29.786
850.369	29.722
850.391	29.827
850.414	29.666
850.436	29.782
850.458	29.786
850.480	29.805
850.502	29.731
850.524	29.727
850.547	29.782
850.569	29.800
850.591	29.745
850.613	29.805
850.635	29.703
850.658	29.699
850.680	29.777
850.702	29.768
850.724	29.805
850.746	29.722
850.768	29.703
850.791	29.699
850.813	29.768
850.835	29.764
850.857	29.805
850.879	29.777
850.901	29.745
850.923	29.736
850.945	29.773
850.968	29.768
850.990	29.764
851.012	29.777
851.034	29.741
851.056	29.745
851.078	29.754
851.100	29.795
851.122	29.759
851.144	29.764
851.167	29.754
851.189	29.832
851.211	29.791
851.233	29.768
851.255	29.786
851.277	29.754
851.299	29.777
851.321	29.764
851.343	29.795
851.365	29.754
851.387	29.773
851.409	29.764
851.431	29.759
851.453	29.768
851.476	29.722
851.498	29.768
851.520	29.745
851.542	29.741
851.564	29.680
851.586	29.713
851.608	29.795
851.630	29.782
851.652	29.773
851.674	29.832
851.696	29.741
851.718	29.759
851.740	29.777
851.762	29.722
851.784	29.827
851.806	29.731
851.828	29.736
851.850	29.773
851.872	29.777
851.894	29.800
851.916	29.827
851.938	29.708
851.960	29.703
851.982	29.741
852.004	29.795
852.026	29.805
852.048	29.777
852.070	29.827
852.092	29.703
852.114	29.731
852.135	29.777
852.157	29.754
852.179	29.717
852.201	29.731
852.223	29.827
852.245	29.791
852.267	29.805
852.289	29.777
852.311	29.768
852.333	29.805
852.355	29.750
852.377	29.759
852.399	29.773
852.421	29.764
852.442	29.795
852.464	29.791
852.486	29.750
852.508	29.786
852.530	29.759
852.552	29.805
852.574	29.745
852.596	29.786
852.618	29.741
852.639	29.791
852.661	29.689
852.683	29.805
852.705	29.745
852.727	29.805
852.749	29.736
852.771	29.818
852.792	29.713
852.814	29.841
852.836	29.727
852.858	29.800
852.880	29.759
852.902	29.754
852.924	29.800
852.945	29.818
852.967	29.827
852.989	29.814
853.011	29.727
853.033	30.048
853.055	30.752
853.076	31.511
853.098	32.287
853.120	32.835
853.142	32.865
853.164	32.201
853.185	31.348
853.207	30.481
853.229	29.983
853.251	29.872
853.272	29.823
853.294	29.786
853.316	29.764
853.338	29.736
853.360	29.805
853.381	29.832
853.403	29.809
853.425	29.741
853.447	29.823
853.468	30.722
853.490	31.838
853.512	32.828
853.534	33.703
853.555	33.836
853.577	32.822
853.599	32.017
853.620	30.622
853.642	30.026
853.664	29.868
853.686	29.795
853.707	29.782
853.729	29.750
853.751	29.713
853.773	29.717
853.794	29.759
853.816	29.786
853.838	29.750
853.859	29.782
853.881	29.795
853.903	29.759
853.924	29.782
853.946	29.777
853.968	29.814
853.989	29.836
854.011	29.736
854.033	29.795
854.054	29.795
854.076	29.754
854.098	29.782
854.119	29.814
854.141	29.786
854.163	29.836
854.184	29.836
854.206	29.823
854.228	29.754
854.249	29.773
854.271	29.750
854.292	29.736
854.314	29.736
854.336	29.722
854.357	29.741
854.379	29.750
854.401	29.689
854.422	29.845
854.444	29.713
854.465	29.736
854.487	29.809
854.509	29.786
854.530	29.727
854.552	29.773
854.573	29.795
854.595	29.777
854.617	29.745
854.638	29.782
854.660	29.713
854.681	29.823
854.703	29.768
854.724	29.759
854.746	29.699
854.767	29.791
854.789	29.818
854.811	29.699
854.832	29.745
854.854	29.777
854.875	29.741
854.897	29.832
854.918	29.768
854.940	29.731
854.961	29.791
854.983	29.854
855.004	29.759
855.026	29.741
855.047	29.795
855.069	29.782
855.090	29.699
855.112	29.764
855.133	29.731
855.155	29.708
855.176	29.759
855.198	29.805
855.219	29.764
855.241	29.841
855.262	29.795
855.284	29.713
855.305	29.768
855.327	29.818
855.348	29.722
855.370	29.731
855.391	29.827
855.413	29.795
855.434	29.736
855.456	29.731
855.477	29.759
855.498	29.699
855.520	29.786
855.541	29.731
855.563	29.805
855.584	29.750
855.606	29.777
855.627	29.745
855.648	29.795
855.670	29.736
855.691	29.689
855.713	29.750
855.734	29.768
855.755	29.722
855.777	29.814
855.798	29.791
855.820	29.805
855.841	29.764
855.862	29.708
855.884	29.736
855.905	29.823
855.927	29.768
855.948	29.750
855.969	29.754
855.991	29.773
856.012	29.773
856.033	29.773
856.055	29.818
856.076	29.850
856.098	29.777
856.119	29.800
856.140	29.777
856.162	29.717
856.183	29.791
856.204	29.703
856.226	29.823
856.247	29.750
856.268	29.717
856.290	29.759
856.311	29.675
856.332	29.717
856.354	29.759
856.375	29.795
856.396	29.782
856.417	29.759
856.439	29.773
856.460	29.685
856.481	29.809
856.503	29.786
856.524	29.795
856.545	29.777
856.566	29.786
856.588	29.791
856.609	29.795
856.630	29.773
856.652	29.809
856.673	29.773
856.694	29.727
856.715	29.782
856.737	29.745
856.758	29.731
856.779	29.777
856.800	29.731
856.822	29.680
856.843	29.736
856.864	29.786
856.885	29.791
856.907	29.814
856.928	29.759
856.949	29.754
856.970	29.768
856.991	29.777
857.013	29.791
857.034	29.759
857.055	29.800
857.076	29.827
857.097	29.791
857.119	29.814
857.140	29.823
857.161	29.731
857.182	29.741
857.203	29.795
857.225	29.736
857.246	29.727
857.267	29.782
857.288	29.823
857.309	29.786
857.330	29.782
857.352	29.777
857.373	29.754
857.394	29.713
857.415	29.741
857.436	29.727
857.457	29.741
857.479	29.823
857.500	29.745
857.521	29.736
857.542	29.823
857.563	29.703
857.584	29.764
857.605	29.717
857.626	29.764
857.648	29.814
857.669	29.809
857.690	29.795
857.711	29.759
857.732	29.768
857.753	29.759
857.774	29.722
857.795	29.722
857.816	29.727
857.837	29.777
857.859	29.745
857.880	29.805
857.901	29.689
857.922	29.786
857.943	29.777
857.964	29.708
857.985	29.703
858.006	29.717
858.027	29.713
858.048	29.722
858.069	29.685
858.090	29.782
858.111	29.713
858.132	29.773
858.153	29.768
858.174	29.818
858.195	29.823
858.216	29.768
858.237	29.685
858.258	29.818
858.279	29.782
858.300	29.777
858.321	29.764
858.342	29.713
858.363	29.827
858.384	29.741
858.406	29.713
858.426	29.736
858.447	29.773
858.468	29.777
858.489	29.736
858.510	29.827
858.531	29.786
858.552	29.814
