Wavelength (nm)	Rel. spec. intensity (dB)
849.567	29.727
849.590	29.754
849.612	29.759
849.634	29.773
849.657	29.786
849.679	29.786
849.701	29.671
849.724	29.759
849.746	29.795
849.768	29.809
849.791	29.764
849.813	29.809
849.835	29.731
849.857	29.768
849.880	29.703
849.902	29.845
849.924	29.754
849.946	29.722
849.969	29.759
849.991	29.717
850.013	29.680
850.036	29.745
850.058	29.754
850.080	29.741
850.102	29.731
850.125	29.671
850.147	29.754
850.169	29.694
850.191	29.722
850.214	29.768
850.236	29.685
850.258	29.764
850.280	29.694
850.302	29.777
850.325	29.741
850.347	29.786
850.369	29.777
850.391	29.713
850.414	29.722
850.436	29.685
850.458	29.754
850.480	29.745
850.502	29.741
850.524	29.750
850.547	29.750
850.569	29.777
850.591	29.754
850.613	29.773
850.635	29.773
850.658	29.754
850.680	29.680
850.702	29.689
850.724	29.699
850.746	29.717
850.768	29.694
850.791	29.773
850.813	29.764
850.835	29.791
850.857	29.722
850.879	29.731
850.901	29.745
850.923	29.628
850.945	29.745
850.968	29.768
850.990	29.768
851.012	29.750
851.034	29.764
851.056	29.722
851.078	29.777
851.100	29.759
851.122	29.768
851.144	29.827
851.167	29.827
851.189	29.666
851.211	29.731
851.233	29.791
851.255	29.745
851.277	29.713
851.299	29.727
851.321	29.736
851.343	29.795
851.365	29.713
851.387	29.773
851.409	29.805
851.431	29.791
851.453	29.759
851.476	29.717
851.498	29.809
851.520	29.741
851.542	29.703
851.564	29.750
851.586	29.717
851.608	29.768
851.630	29.777
851.652	29.717
851.674	29.759
851.696	29.741
851.718	29.773
851.740	29.750
851.762	29.764
851.784	29.699
851.806	29.773
851.828	29.694
851.850	29.786
851.872	29.703
851.894	29.675
851.916	29.786
851.938	29.777
851.960	29.750
851.982	29.680
852.004	29.722
852.026	29.750
852.048	29.745
852.070	29.703
852.092	29.717
852.114	29.800
852.135	29.680
852.157	29.768
852.179	29.741
852.201	29.717
852.223	29.773
852.245	29.791
852.267	29.713
852.289	29.727
852.311	29.745
852.333	29.754
852.355	29.782
852.377	29.841
852.399	29.773
852.421	29.805
852.442	29.754
852.464	29.786
852.486	29.791
852.508	29.731
852.530	29.764
852.552	29.845
852.574	29.750
852.596	29.777
852.618	29.731
852.639	29.731
852.661	29.657
852.683	29.708
852.705	29.741
852.727	29.754
852.749	29.699
852.771	29.727
852.792	29.717
852.814	29.741
852.836	29.814
852.858	29.666
852.880	29.750
852.902	29.689
852.924	29.689
852.945	29.675
852.967	29.791
852.989	29.722
853.011	29.773
853.033	29.661
853.055	29.717
853.076	29.759
853.098	29.777
853.120	29.741
853.142	29.768
853.164	29.764
853.185	29.823
853.207	29.800
853.229	29.791
853.251	29.782
853.272	29.703
853.294	29.722
853.316	29.750
853.338	29.754
853.360	29.722
853.381	29.754
853.403	29.722
853.425	29.759
853.447	29.754
853.468	29.754
853.490	29.773
853.512	29.786
853.534	29.777
853.555	29.754
853.577	29.754
853.599	29.731
853.620	29.722
853.642	29.786
853.664	29.736
853.686	29.791
853.707	29.800
853.729	29.782
853.751	29.800
853.773	29.894
853.794	30.170
853.816	30.641
853.838	31.307
853.859	32.084
853.881	32.840
853.903	33.883
853.924	34.506
853.946	34.840
853.968	34.914
853.989	33.939
854.011	32.465
854.033	30.976
854.054	30.022
854.076	29.912
854.098	29.903
854.119	29.786
854.141	29.845
854.163	29.809
854.184	29.777
854.206	29.754
854.228	29.827
854.249	29.759
854.271	29.731
854.292	29.764
854.314	29.754
854.336	29.699
854.357	29.814
854.379	29.717
854.401	29.731
854.422	30.220
854.444	30.810
854.465	31.948
854.487	33.369
854.509	34.726
854.530	35.605
854.552	35.753
854.573	35.083
854.595	33.927
854.617	32.423
854.638	30.874
854.660	30.103
854.681	29.912
854.703	29.845
854.724	29.841
854.746	29.773
854.767	29.754
854.789	29.741
854.811	29.745
854.832	29.759
854.854	29.782
854.875	29.731
854.897	29.786
854.918	29.818
854.940	29.809
854.961	29.745
854.983	29.717
855.004	29.717
855.026	29.800
855.047	29.773
855.069	29.741
855.090	29.745
855.112	29.689
855.133	29.759
855.155	29.727
855.176	29.741
855.198	29.805
855.219	29.795
855.241	29.809
855.262	29.773
855.284	29.832
855.305	29.750
855.327	29.768
855.348	29.713
855.370	29.708
855.391	29.694
855.413	29.750
855.434	29.827
855.456	29.694
855.477	29.680
855.498	29.814
855.520	29.759
855.541	29.791
855.563	29.689
855.584	29.823
855.606	29.777
855.627	29.750
855.648	29.768
855.670	29.685
855.691	29.736
855.713	29.791
855.734	29.736
855.755	29.782
855.777	29.750
855.798	29.773
855.820	29.727
855.841	29.680
855.862	29.694
855.884	29.736
855.905	29.708
855.927	29.727
855.948	29.708
855.969	29.741
855.991	29.689
856.012	29.713
856.033	29.717
856.055	29.652
856.076	29.661
856.098	29.754
856.119	29.685
856.140	29.713
856.162	29.827
856.183	29.661
856.204	29.671
856.226	29.717
856.247	29.731
856.268	29.845
856.290	29.741
856.311	29.741
856.332	29.773
856.354	29.708
856.375	29.768
856.396	29.736
856.417	29.713
856.439	29.750
856.460	29.754
856.481	29.768
856.503	29.727
856.524	29.703
856.545	29.773
856.566	29.777
856.588	29.741
856.609	29.727
856.630	29.764
856.652	29.754
856.673	29.773
856.694	29.818
856.715	29.736
856.737	29.731
856.758	29.731
856.779	29.809
856.800	29.768
856.822	29.689
856.843	29.713
856.864	29.814
856.885	29.791
856.907	29.832
856.928	29.741
856.949	29.713
856.970	29.791
856.991	29.731
857.013	29.708
857.034	29.754
857.055	29.722
857.076	29.759
857.097	29.754
857.119	29.713
857.140	29.741
857.161	29.694
857.182	29.657
857.203	29.791
857.225	29.759
857.246	29.736
857.267	29.764
857.288	29.722
857.309	29.805
857.330	29.727
857.352	29.731
857.373	29.800
857.394	29.694
857.415	29.722
857.436	29.795
857.457	29.759
857.479	29.764
857.500	29.713
857.521	29.699
857.542	29.741
857.563	29.750
857.584	29.782
857.605	29.750
857.626	29.768
857.648	29.786
857.669	29.768
857.690	29.657
857.711	29.722
857.732	29.731
857.753	29.750
857.774	29.703
857.795	29.782
857.816	29.731
857.837	29.736
857.859	29.703
857.880	29.727
857.901	29.745
857.922	29.759
857.943	29.754
857.964	29.699
857.985	29.731
858.006	29.727
858.027	29.750
858.048	29.717
858.069	29.745
858.090	29.759
858.111	29.768
858.132	29.773
858.153	29.699
858.174	29.708
858.195	29.731
858.216	29.671
858.237	29.699
858.258	29.777
858.279	29.717
858.300	29.836
858.321	29.736
858.342	29.685
858.363	29.680
858.384	29.671
858.406	29.689
858.426	29.675
858.447	29.750
858.468	29.759
858.489	29.786
858.510	29.736
858.531	29.731
858.552	29.713
858.573	29.643
858.594	29.731
858.615	29.661
858.636	29.727
858.657	29.689
858.678	29.643
858.699	29.759
858.720	29.823
858.741	29.836
858.762	29.768
858.783	29.708
858.804	29.773
858.825	29.727
858.846	29.685
858.867	29.736
858.888	29.764
858.908	29.731
858.929	29.764
858.950	29.731
858.971	29.675
858.992	29.791
859.013	29.675
859.034	29.731
859.055	29.754
859.076	29.795
859.097	29.722
859.117	29.708
859.138	29.750
859.159	29.745
859.180	29.722
859.201	29.736
859.222	29.773
859.243	29.827
859.264	29.786
859.284	29.773
859.305	29.759
859.326	29.795
859.347	29.741
859.368	29.773
859.389	29.764
859.410	29.754
859.430	29.708
859.451	29.741
859.472	29.764
859.493	29.782
859.514	29.731
859.534	29.731
