Wavelength (nm)	Rel. spec. intensity (dB)
843.999	29.836
844.022	29.832
844.045	29.863
844.069	29.886
844.092	29.859
844.115	29.809
844.138	29.886
844.161	29.899
844.184	29.764
844.207	29.814
844.230	29.814
844.253	29.868
844.276	29.859
844.300	29.872
844.323	29.814
844.346	29.805
844.369	29.827
844.392	29.859
844.415	29.841
844.438	29.881
844.461	29.841
844.484	29.881
844.507	29.782
844.530	29.886
844.553	29.818
844.576	29.809
844.599	29.791
844.622	29.800
844.645	29.841
844.668	29.894
844.692	29.814
844.715	29.795
844.738	29.841
844.761	29.841
844.784	29.836
844.807	29.850
844.830	29.912
844.853	29.881
844.876	29.881
844.899	29.768
844.922	29.768
844.945	29.809
844.968	29.850
844.991	29.832
845.014	29.845
845.037	29.841
845.060	29.841
845.083	29.823
845.105	29.850
845.128	29.814
845.151	29.827
845.174	29.854
845.197	29.827
845.220	29.818
845.243	29.832
845.266	29.841
845.289	29.773
845.312	29.823
845.335	29.791
845.358	29.795
845.381	29.795
845.404	29.841
845.427	29.750
845.450	29.894
845.473	29.800
845.496	29.786
845.518	29.823
845.541	29.850
845.564	29.786
845.587	29.818
845.610	29.827
845.633	29.823
845.656	29.823
845.679	29.814
845.702	29.818
845.724	29.886
845.747	29.741
845.770	29.850
845.793	29.786
845.816	29.823
845.839	29.877
845.862	29.841
845.885	29.850
845.907	29.773
845.930	29.764
845.953	29.836
845.976	29.872
845.999	29.934
846.022	29.930
846.045	29.845
846.067	29.818
846.090	29.854
846.113	29.850
846.136	29.881
846.159	29.854
846.182	29.809
846.204	29.854
846.227	29.859
846.250	29.868
846.273	29.800
846.296	29.782
846.318	29.872
846.341	29.818
846.364	29.736
846.387	29.795
846.410	29.845
846.432	29.863
846.455	29.809
846.478	29.814
846.501	29.845
846.523	29.800
846.546	29.773
846.569	29.782
846.592	29.890
846.614	29.809
846.637	29.782
846.660	29.850
846.683	29.836
846.705	29.845
846.728	29.845
846.751	29.859
846.774	29.908
846.796	29.809
846.819	29.791
846.842	29.859
846.865	29.863
846.887	29.868
846.910	29.823
846.933	29.836
846.955	29.921
846.978	29.854
847.001	29.832
847.023	29.823
847.046	29.886
847.069	29.791
847.092	29.863
847.114	29.832
847.137	29.836
847.160	29.823
847.182	29.886
847.205	29.768
847.228	29.863
847.250	29.877
847.273	29.881
847.296	29.814
847.318	29.836
847.341	29.832
847.364	29.881
847.386	29.827
847.409	29.845
847.432	29.845
847.454	29.859
847.477	29.850
847.499	29.827
847.522	29.850
847.545	29.877
847.567	29.845
847.590	29.818
847.613	29.782
847.635	29.841
847.658	29.845
847.680	29.800
847.703	29.773
847.726	29.894
847.748	29.863
847.771	29.814
847.793	29.877
847.816	29.759
847.839	29.818
847.861	29.832
847.884	29.795
847.906	29.836
847.929	29.818
847.951	29.754
847.974	29.850
847.996	29.832
848.019	29.868
848.042	29.827
848.064	29.818
848.087	29.863
848.109	29.841
848.132	29.841
848.154	29.827
848.177	29.863
848.199	29.850
848.222	29.836
848.244	29.845
848.267	29.791
848.289	29.845
848.312	29.872
848.334	29.823
848.357	29.791
848.379	29.814
848.402	29.818
848.424	29.777
848.447	29.782
848.469	29.872
848.492	29.930
848.514	29.868
848.537	29.903
848.559	29.863
848.582	29.872
848.604	29.912
848.627	29.845
848.649	29.773
848.672	29.782
848.694	29.917
848.717	29.823
848.739	29.881
848.761	29.827
848.784	29.841
848.806	29.908
848.829	30.158
848.851	31.290
848.874	32.333
848.896	33.504
848.919	35.005
848.941	35.971
848.963	35.790
848.986	36.099
849.008	35.786
849.031	34.047
849.053	32.653
849.075	31.031
849.098	30.245
849.120	30.026
849.143	29.805
849.165	29.841
849.187	29.956
849.210	29.881
849.232	29.899
849.254	29.886
849.277	29.877
849.299	29.863
849.322	29.836
849.344	29.814
849.366	29.814
849.389	30.580
849.411	32.133
849.433	32.849
849.456	33.957
849.478	35.280
849.500	35.815
849.523	34.153
849.545	32.603
849.567	30.645
849.590	30.090
849.612	29.943
849.634	29.926
849.657	29.921
849.679	29.841
849.701	29.899
849.724	29.827
849.746	29.809
849.768	29.832
849.791	29.836
849.813	29.872
849.835	29.859
849.857	29.863
849.880	29.845
849.902	29.903
849.924	29.926
849.946	29.872
849.969	29.814
849.991	29.814
850.013	29.814
850.036	29.827
850.058	29.841
850.080	29.890
850.102	29.845
850.125	29.868
850.147	29.850
850.169	29.823
850.191	29.845
850.214	29.872
850.236	29.872
850.258	29.827
850.280	29.805
850.302	29.850
850.325	29.863
850.347	29.854
850.369	29.814
850.391	29.859
850.414	29.877
850.436	29.805
850.458	29.868
850.480	29.841
850.502	29.863
850.524	29.850
850.547	29.805
850.569	29.832
850.591	29.854
850.613	29.850
850.635	29.827
850.658	29.845
850.680	29.832
850.702	29.868
850.724	29.805
850.746	29.894
850.768	29.917
850.791	29.859
850.813	29.877
850.835	29.859
850.857	29.903
850.879	29.917
850.901	29.850
850.923	29.836
850.945	29.845
850.968	29.823
850.990	29.845
851.012	29.795
851.034	29.764
851.056	29.782
851.078	29.805
851.100	29.890
851.122	29.814
851.144	29.773
851.167	29.921
851.189	29.841
851.211	29.863
851.233	29.845
851.255	29.863
851.277	29.854
851.299	29.827
851.321	29.823
851.343	29.832
851.365	29.795
851.387	29.832
851.409	29.809
851.431	29.845
851.453	29.805
851.476	29.791
851.498	29.750
851.520	29.773
851.542	29.859
851.564	29.850
851.586	29.930
851.608	29.854
851.630	29.850
851.652	29.827
851.674	29.809
851.696	29.809
851.718	29.836
851.740	29.823
851.762	29.809
851.784	29.859
851.806	29.886
851.828	29.868
851.850	29.827
851.872	29.841
851.894	29.768
851.916	29.786
851.938	29.886
851.960	29.872
851.982	29.854
852.004	29.890
852.026	29.841
852.048	29.868
852.070	29.877
852.092	29.863
852.114	29.768
852.135	29.872
852.157	29.886
852.179	29.809
852.201	29.823
852.223	29.886
852.245	29.881
852.267	29.800
852.289	29.850
852.311	29.845
852.333	29.894
852.355	29.850
852.377	29.827
852.399	29.786
852.421	29.881
852.442	29.908
852.464	29.903
852.486	29.868
852.508	29.859
852.530	29.768
852.552	29.845
852.574	29.800
852.596	29.845
852.618	29.850
852.639	29.872
852.661	29.845
852.683	29.836
852.705	29.841
852.727	29.863
852.749	29.845
852.771	29.850
852.792	29.877
852.814	29.890
852.836	29.827
852.858	29.859
852.880	29.868
852.902	29.800
852.924	29.805
852.945	29.836
852.967	29.845
852.989	29.805
853.011	29.836
853.033	29.754
853.055	29.827
853.076	29.859
853.098	29.841
853.120	29.832
853.142	29.800
853.164	29.854
853.185	29.750
853.207	29.809
853.229	29.759
853.251	29.872
853.272	29.881
853.294	29.859
853.316	29.845
853.338	29.863
853.360	29.863
853.381	29.877
853.403	29.805
853.425	29.836
853.447	29.791
853.468	29.850
853.490	29.786
853.512	29.814
853.534	29.809
853.555	29.868
853.577	29.809
853.599	29.800
853.620	29.841
853.642	29.786
853.664	29.759
853.686	29.886
853.707	29.899
853.729	29.832
853.751	29.886
853.773	29.836
853.794	29.877
853.816	29.827
853.838	29.859
853.859	29.836
853.881	29.872
853.903	29.868
853.924	29.845
853.946	29.877
853.968	29.850
