Wavelength (nm)	Rel. spec. intensity (dB)
866.187	29.717
866.207	29.727
866.227	29.661
866.247	29.759
866.266	29.764
866.286	29.841
866.306	29.722
866.325	29.619
866.345	29.703
866.365	29.809
866.385	29.722
866.404	29.750
866.424	29.750
866.444	29.768
866.463	29.731
866.483	29.805
866.503	29.722
866.523	29.809
866.542	29.786
866.562	29.694
866.582	29.782
866.601	29.657
866.621	29.713
866.641	29.731
866.660	29.708
866.680	29.717
866.700	29.703
866.719	29.764
866.739	29.699
866.759	29.777
866.778	29.750
866.798	29.750
866.818	29.689
866.837	29.809
866.857	29.647
866.876	29.675
866.896	29.768
866.916	29.750
866.935	29.699
866.955	29.823
866.975	29.680
866.994	29.745
867.014	29.703
867.033	29.759
867.053	29.699
867.073	29.717
867.092	29.717
867.112	29.657
867.131	29.694
867.151	29.703
867.171	29.708
867.190	29.805
867.210	29.754
867.229	29.750
867.249	29.722
867.268	29.768
867.288	29.773
867.308	29.777
867.327	29.836
867.347	29.773
867.366	29.777
867.386	29.722
867.405	29.782
867.425	29.773
867.444	29.777
867.464	29.809
867.483	29.717
867.503	29.694
867.523	29.754
867.542	29.703
867.562	29.699
867.581	29.736
867.601	29.736
867.620	29.736
867.640	29.741
867.659	29.717
867.679	29.736
867.698	29.708
867.718	29.768
867.737	29.791
867.757	29.722
867.776	29.722
867.796	29.717
867.815	29.768
867.834	29.754
867.854	29.731
867.873	29.736
867.893	29.777
867.912	29.741
867.932	29.795
867.951	29.795
867.971	29.722
867.990	29.795
868.010	29.694
868.029	29.768
868.048	29.675
868.068	29.671
868.087	29.768
868.107	29.680
868.126	29.773
868.146	29.685
868.165	29.694
868.184	29.703
868.204	29.689
868.223	29.731
868.243	29.727
868.262	29.717
868.281	29.628
868.301	29.708
868.320	29.741
868.340	29.722
868.359	29.768
868.378	29.727
868.398	29.759
868.417	29.731
868.437	29.745
868.456	29.731
868.475	29.759
868.495	29.722
868.514	29.703
868.533	29.713
868.553	29.736
868.572	29.671
868.591	29.795
868.611	29.764
868.630	29.814
868.649	29.814
868.669	29.782
868.688	29.795
868.707	29.791
868.727	29.717
868.746	29.727
868.765	29.741
868.785	29.764
868.804	29.717
868.823	29.661
868.843	29.643
868.862	29.713
868.881	29.795
868.900	29.741
868.920	29.741
868.939	29.731
868.958	29.754
868.978	29.782
868.997	29.764
869.016	29.699
869.035	29.782
869.055	29.731
869.074	29.745
869.093	29.768
869.112	29.717
869.132	29.694
869.151	29.699
869.170	29.731
869.189	29.685
869.209	29.759
869.228	29.727
869.247	29.750
869.266	29.731
869.286	29.741
869.305	29.750
869.324	29.750
869.343	29.661
869.362	29.727
869.382	29.614
869.401	29.764
869.420	29.754
869.439	29.727
869.459	29.703
869.478	29.717
869.497	29.759
869.516	29.741
869.535	29.823
869.554	29.773
869.574	29.786
869.593	29.699
869.612	29.786
869.631	29.795
869.650	29.754
869.669	29.759
869.689	29.661
869.708	29.782
869.727	29.750
869.746	29.680
869.765	29.731
869.784	29.699
869.804	29.699
869.823	29.680
869.842	29.722
869.861	29.800
869.880	29.727
869.899	29.800
869.918	29.786
869.937	29.713
869.957	29.750
869.976	29.736
869.995	29.699
870.014	29.764
870.033	29.814
870.052	29.759
870.071	29.741
870.090	29.731
870.109	29.782
870.128	29.708
870.147	29.647
870.167	29.786
870.186	29.731
870.205	29.773
870.224	29.786
870.243	29.713
870.262	29.736
870.281	29.764
870.300	29.675
870.319	29.661
870.338	29.782
870.357	29.773
870.376	29.809
870.395	29.809
870.414	29.713
870.433	29.731
870.452	29.741
870.471	29.777
870.490	29.800
870.509	29.773
870.528	29.699
870.547	29.773
870.566	29.759
870.585	29.722
870.604	29.768
870.623	29.764
870.642	29.773
870.661	29.782
870.680	29.736
870.699	29.768
870.718	29.759
870.737	29.717
870.756	29.741
870.775	29.680
870.794	29.717
870.813	29.717
870.832	29.703
870.851	29.750
870.870	29.666
870.889	29.786
870.908	29.759
870.927	29.731
870.946	29.703
870.965	29.750
870.984	29.708
871.003	29.782
871.022	29.741
871.041	29.745
871.060	29.773
871.078	29.731
871.097	29.786
871.116	29.777
871.135	29.791
871.154	29.836
871.173	29.917
871.192	29.809
871.211	29.786
871.230	29.619
871.249	29.750
871.267	29.727
871.286	29.713
871.305	29.722
871.324	29.722
871.343	29.768
871.362	29.736
871.381	29.836
871.400	29.722
871.418	29.741
871.437	29.717
871.456	29.832
871.475	29.777
871.494	29.845
871.513	29.708
871.531	29.777
871.550	29.727
871.569	29.750
871.588	29.777
871.607	29.759
871.626	29.731
871.644	29.722
871.663	29.845
871.682	29.680
871.701	29.750
871.720	29.809
871.739	29.731
871.757	29.745
871.776	29.685
871.795	29.703
871.814	29.703
871.833	29.777
871.851	29.745
871.870	29.786
871.889	29.777
871.908	29.731
871.926	29.741
871.945	29.809
871.964	29.731
871.983	29.685
872.001	29.694
872.020	29.727
872.039	29.750
872.058	29.791
872.076	29.795
872.095	29.768
872.114	29.759
872.133	29.809
872.151	29.727
872.170	29.680
872.189	29.722
872.208	29.736
872.226	29.717
872.245	29.731
872.264	29.643
872.282	29.741
872.301	29.764
872.320	29.713
872.339	29.666
872.357	29.777
872.376	29.713
872.395	29.722
872.413	29.791
872.432	29.764
872.451	29.791
872.469	29.759
872.488	29.750
872.507	29.777
872.525	29.703
872.544	29.805
872.563	29.638
872.581	29.717
872.600	29.699
872.619	29.782
872.637	29.777
872.656	29.832
872.675	29.713
872.693	29.722
872.712	29.708
872.731	29.759
872.749	29.818
872.768	29.809
872.786	29.782
872.805	29.791
872.824	29.782
872.842	29.800
872.861	29.694
872.879	29.759
872.898	29.727
872.917	29.800
872.935	29.754
872.954	29.777
872.972	29.764
872.991	29.836
873.010	29.786
873.028	29.699
873.047	29.713
873.065	29.736
873.084	29.791
873.102	29.768
873.121	29.722
873.140	29.736
873.158	29.736
873.177	29.814
873.195	29.680
873.214	29.768
873.232	29.713
873.251	29.722
873.269	29.809
873.288	29.731
873.306	29.750
873.325	29.689
873.344	29.713
873.362	29.699
873.381	29.741
873.399	29.741
873.418	29.791
873.436	29.786
873.455	29.736
873.473	29.699
873.492	29.699
873.510	29.773
873.529	29.713
873.547	29.685
873.566	29.731
873.584	29.699
873.602	29.671
873.621	29.666
873.639	29.680
873.658	29.750
873.676	29.777
873.695	29.823
873.713	29.731
873.732	29.773
873.750	29.703
873.769	29.736
873.787	29.777
873.806	29.731
873.824	29.791
873.842	29.805
873.861	29.741
873.879	29.708
873.898	29.782
873.916	29.773
873.935	29.727
873.953	29.745
873.971	29.722
873.990	29.666
874.008	29.773
874.027	29.722
874.045	29.795
874.063	29.800
874.082	29.764
874.100	29.754
874.119	29.750
874.137	29.773
874.155	29.741
874.174	29.768
874.192	29.805
874.210	29.800
874.229	29.713
874.247	29.805
874.266	29.805
874.284	29.795
874.302	29.773
874.321	29.657
874.339	29.754
874.357	29.699
874.376	29.791
874.394	29.836
874.412	29.741
874.431	29.699
874.449	29.727
874.467	29.759
874.486	29.759
874.504	29.666
874.522	29.768
874.541	29.727
874.559	29.713
874.577	29.750
874.595	29.777
874.614	29.791
874.632	29.786
874.650	29.722
874.669	29.722
874.687	29.764
874.705	29.745
874.723	29.764
874.742	29.689
874.760	29.777
874.778	29.768
874.797	29.823
874.815	29.805
874.833	29.791
874.851	29.768
874.870	29.764
874.888	29.717
874.906	29.727
874.924	29.768
874.943	29.782
874.961	29.773
874.979	29.717
874.997	29.675
875.015	29.727
875.034	29.722
875.052	29.736
875.070	29.759
875.088	29.773
875.107	29.703
875.125	29.805
875.143	29.754
875.161	29.795
875.179	29.741
875.198	29.736
875.216	29.773
875.234	29.759
875.252	29.675
875.270	29.782
875.288	29.754
875.307	29.814
875.325	29.736
875.343	29.782
875.361	29.745
875.379	29.777
875.397	29.768
875.416	29.809
875.434	29.791
875.452	29.703
875.470	29.708
875.488	29.750
875.506	29.699
875.524	29.736
875.543	29.727
875.561	29.727
875.579	29.791
875.597	29.722
875.615	29.652
875.633	29.717
875.651	29.680
875.669	29.680
875.687	29.731
875.706	29.809
875.724	29.800
875.742	29.713
875.760	29.727
875.778	29.791
875.796	29.814
875.814	29.722
875.832	29.768
875.850	29.694
875.868	29.680
875.886	29.731
875.904	29.727
875.922	29.768
875.941	29.699
875.959	29.713
875.977	29.741
875.995	29.750
876.013	29.741
876.031	29.713
876.049	29.741
876.067	29.671
876.085	29.731
876.103	29.823
876.121	29.694
876.139	29.768
876.157	29.699
