Wavelength (nm)	Rel. spec. intensity (dB)
843.907	29.694
843.930	29.717
843.953	29.717
843.976	29.731
843.999	29.689
844.022	29.689
844.045	29.652
844.069	29.722
844.092	29.736
844.115	29.657
844.138	29.708
844.161	29.694
844.184	29.750
844.207	29.703
844.230	29.741
844.253	29.736
844.276	29.750
844.300	29.773
844.323	29.689
844.346	29.675
844.369	29.722
844.392	29.633
844.415	29.754
844.438	29.731
844.461	29.722
844.484	29.759
844.507	29.671
844.530	29.657
844.553	29.694
844.576	29.745
844.599	29.713
844.622	29.713
844.645	29.768
844.668	29.680
844.692	29.727
844.715	29.666
844.738	29.722
844.761	29.699
844.784	29.791
844.807	29.791
844.830	29.727
844.853	29.699
844.876	29.713
844.899	29.736
844.922	29.754
844.945	29.708
844.968	29.805
844.991	29.800
845.014	29.741
845.037	29.773
845.060	29.713
845.083	29.727
845.105	29.722
845.128	29.685
845.151	29.773
845.174	29.736
845.197	29.795
845.220	29.741
845.243	29.782
845.266	29.666
845.289	29.689
845.312	29.741
845.335	29.703
845.358	29.689
845.381	29.722
845.404	29.694
845.427	29.800
845.450	29.795
845.473	29.717
845.496	29.671
845.518	29.657
845.541	29.713
845.564	29.652
845.587	29.708
845.610	29.727
845.633	29.675
845.656	29.643
845.679	29.782
845.702	29.741
845.724	29.741
845.747	29.694
845.770	29.722
845.793	29.652
845.816	29.773
845.839	29.782
845.862	29.750
845.885	29.745
845.907	29.750
845.930	29.777
845.953	29.699
845.976	29.764
845.999	29.685
846.022	29.745
846.045	29.685
846.067	29.754
846.090	29.703
846.113	29.708
846.136	29.717
846.159	29.694
846.182	29.666
846.204	29.685
846.227	29.773
846.250	29.736
846.273	29.764
846.296	29.750
846.318	29.782
846.341	29.685
846.364	29.699
846.387	29.764
846.410	29.777
846.432	29.675
846.455	29.666
846.478	29.722
846.501	29.759
846.523	29.754
846.546	29.741
846.569	29.694
846.592	29.671
846.614	29.731
846.637	29.722
846.660	29.708
846.683	29.773
846.705	29.777
846.728	29.754
846.751	29.666
846.774	29.661
846.796	29.759
846.819	29.694
846.842	29.717
846.865	29.745
846.887	29.713
846.910	29.647
846.933	29.741
846.955	29.708
846.978	29.754
847.001	29.773
847.023	29.633
847.046	29.722
847.069	29.633
847.092	29.722
847.114	29.727
847.137	29.717
847.160	29.657
847.182	29.727
847.205	29.768
847.228	29.836
847.250	29.754
847.273	29.750
847.296	29.754
847.318	29.777
847.341	29.717
847.364	29.703
847.386	29.727
847.409	29.703
847.432	29.722
847.454	29.713
847.477	29.736
847.499	29.768
847.522	29.773
847.545	29.722
847.567	29.713
847.590	29.680
847.613	29.759
847.635	29.713
847.658	29.745
847.680	29.736
847.703	29.786
847.726	29.731
847.748	29.703
847.771	29.722
847.793	29.699
847.816	29.713
847.839	29.750
847.861	29.741
847.884	29.750
847.906	29.764
847.929	29.750
847.951	29.777
847.974	29.961
847.996	30.584
848.019	31.440
848.042	32.243
848.064	32.783
848.087	32.907
848.109	32.914
848.132	33.379
848.154	33.976
848.177	34.165
848.199	34.667
848.222	35.410
848.244	35.087
848.267	33.930
848.289	32.826
848.312	31.584
848.334	30.469
848.357	30.077
848.379	29.894
848.402	29.827
848.424	29.863
848.447	29.795
848.469	29.827
848.492	29.782
848.514	29.768
848.537	29.777
848.559	29.741
848.582	29.809
848.604	29.850
848.627	29.791
848.649	29.736
848.672	29.777
848.694	29.773
848.717	29.978
848.739	31.133
848.761	32.370
848.784	33.974
848.806	35.688
848.829	37.491
848.851	38.342
848.874	38.507
848.896	38.785
848.919	38.561
848.941	37.026
848.963	35.631
848.986	34.218
849.008	32.995
849.031	31.511
849.053	30.461
849.075	30.009
849.098	29.841
849.120	29.795
849.143	29.759
849.165	29.791
849.187	29.741
849.210	29.768
849.232	29.782
849.254	29.854
849.277	29.764
849.299	29.773
849.322	29.768
849.344	29.699
849.366	29.782
849.389	29.823
849.411	30.496
849.433	31.632
849.456	32.653
849.478	33.640
849.500	33.872
849.523	32.847
849.545	31.342
849.567	30.241
849.590	29.800
849.612	29.782
849.634	29.782
849.657	29.777
849.679	29.750
849.701	29.717
849.724	29.750
849.746	29.745
849.768	29.717
849.791	29.647
849.813	29.777
849.835	29.699
849.857	29.741
849.880	29.671
849.902	29.777
849.924	29.777
849.946	29.764
849.969	29.745
849.991	29.805
850.013	29.680
850.036	29.768
850.058	29.786
850.080	29.809
850.102	29.666
850.125	29.717
850.147	29.768
850.169	29.809
850.191	29.713
850.214	29.671
850.236	29.694
850.258	29.713
850.280	29.782
850.302	29.745
850.325	29.731
850.347	29.661
850.369	29.717
850.391	29.685
850.414	29.795
850.436	29.754
850.458	29.764
850.480	29.773
850.502	29.800
850.524	29.717
850.547	29.754
850.569	29.786
850.591	29.786
850.613	29.736
850.635	29.703
850.658	29.741
850.680	29.703
850.702	29.777
850.724	29.759
850.746	29.759
850.768	29.708
850.791	29.750
850.813	29.703
850.835	29.722
850.857	29.708
850.879	29.717
850.901	29.680
850.923	29.750
850.945	29.675
850.968	29.750
850.990	29.791
851.012	29.791
851.034	29.703
851.056	29.736
851.078	29.699
851.100	29.671
851.122	29.727
851.144	29.782
851.167	29.750
851.189	29.666
851.211	29.652
851.233	29.722
851.255	29.708
851.277	29.722
851.299	29.731
851.321	29.745
851.343	29.717
851.365	29.633
851.387	29.708
851.409	29.671
851.431	29.741
851.453	29.722
851.476	29.795
851.498	29.736
851.520	29.736
851.542	29.699
851.564	29.675
851.586	29.671
851.608	29.754
851.630	29.759
851.652	29.741
851.674	29.764
851.696	29.685
851.718	29.750
851.740	29.666
851.762	29.722
851.784	29.782
851.806	29.741
851.828	29.741
851.850	29.768
851.872	29.722
851.894	29.782
851.916	29.708
851.938	29.759
851.960	29.689
851.982	29.699
852.004	29.727
852.026	29.809
852.048	29.731
852.070	29.750
852.092	29.754
852.114	29.708
852.135	29.768
852.157	29.703
852.179	29.680
852.201	29.708
852.223	29.657
852.245	29.764
852.267	29.722
852.289	29.754
852.311	29.680
852.333	29.708
852.355	29.694
852.377	29.777
852.399	29.791
852.421	29.736
852.442	29.675
852.464	29.657
852.486	29.727
852.508	29.699
852.530	29.694
852.552	29.741
852.574	29.809
852.596	29.750
852.618	29.666
852.639	29.689
852.661	29.768
852.683	29.731
852.705	29.661
852.727	29.741
852.749	29.647
852.771	29.722
852.792	29.609
852.814	29.685
852.836	29.689
852.858	29.689
852.880	29.741
852.902	29.759
852.924	29.731
852.945	29.717
852.967	29.680
852.989	29.768
853.011	29.680
853.033	29.703
853.055	29.731
853.076	29.685
853.098	29.680
853.120	29.777
853.142	29.703
853.164	29.633
853.185	29.717
853.207	29.791
853.229	29.791
853.251	29.708
853.272	29.777
853.294	29.768
853.316	29.736
853.338	29.694
853.360	29.750
853.381	29.791
853.403	29.750
853.425	29.759
853.447	29.773
853.468	29.699
853.490	29.708
853.512	29.750
853.534	29.768
853.555	29.727
853.577	29.671
853.599	29.841
853.620	29.717
853.642	29.689
853.664	29.666
853.686	29.703
853.707	29.736
853.729	29.759
853.751	29.731
853.773	29.694
853.794	29.694
853.816	29.661
853.838	29.703
853.859	29.745
853.881	29.731
