Wavelength (nm)	Rel. spec. intensity (dB)
844.207	29.741
844.230	29.694
844.253	29.680
844.276	29.628
844.300	29.647
844.323	29.750
844.346	29.722
844.369	29.675
844.392	29.657
844.415	29.675
844.438	29.768
844.461	29.777
844.484	29.657
844.507	29.708
844.530	29.764
844.553	29.736
844.576	29.768
844.599	29.741
844.622	29.773
844.645	29.680
844.668	29.717
844.692	29.754
844.715	29.727
844.738	29.685
844.761	29.850
844.784	29.708
844.807	29.666
844.830	29.736
844.853	29.685
844.876	29.759
844.899	29.764
844.922	29.764
844.945	29.694
844.968	29.832
844.991	29.764
845.014	29.731
845.037	29.689
845.060	29.754
845.083	29.750
845.105	29.699
845.128	29.657
845.151	29.727
845.174	29.680
845.197	29.699
845.220	29.680
845.243	29.731
845.266	29.708
845.289	29.708
845.312	29.800
845.335	29.754
845.358	29.685
845.381	29.727
845.404	29.699
845.427	29.731
845.450	29.689
845.473	29.703
845.496	29.600
845.518	29.759
845.541	29.750
845.564	29.643
845.587	29.791
845.610	29.745
845.633	29.773
845.656	29.624
845.679	29.736
845.702	29.694
845.724	29.694
845.747	29.671
845.770	29.689
845.793	29.764
845.816	29.694
845.839	29.638
845.862	29.647
845.885	29.619
845.907	29.722
845.930	29.671
845.953	29.708
845.976	29.703
845.999	29.685
846.022	29.782
846.045	29.708
846.067	29.671
846.090	29.647
846.113	29.708
846.136	29.680
846.159	29.805
846.182	29.745
846.204	29.694
846.227	29.717
846.250	29.680
846.273	29.699
846.296	29.671
846.318	29.713
846.341	29.717
846.364	29.713
846.387	29.717
846.410	29.671
846.432	29.741
846.455	29.754
846.478	29.795
846.501	29.800
846.523	29.759
846.546	29.652
846.569	29.717
846.592	29.708
846.614	29.750
846.637	29.731
846.660	29.647
846.683	29.628
846.705	29.722
846.728	29.708
846.751	29.680
846.774	29.773
846.796	29.736
846.819	29.717
846.842	29.694
846.865	29.685
846.887	29.764
846.910	29.708
846.933	29.727
846.955	29.745
846.978	29.745
847.001	29.777
847.023	29.713
847.046	29.699
847.069	29.750
847.092	29.736
847.114	29.685
847.137	29.703
847.160	29.694
847.182	29.703
847.205	29.717
847.228	29.722
847.250	29.759
847.273	29.685
847.296	29.666
847.318	29.736
847.341	29.750
847.364	29.741
847.386	29.731
847.409	29.731
847.432	29.713
847.454	29.750
847.477	29.773
847.499	29.768
847.522	29.708
847.545	29.750
847.567	29.661
847.590	29.699
847.613	29.741
847.635	29.708
847.658	29.786
847.680	29.809
847.703	29.741
847.726	29.777
847.748	29.699
847.771	29.736
847.793	29.722
847.816	29.786
847.839	29.722
847.861	29.703
847.884	29.764
847.906	29.675
847.929	29.782
847.951	29.675
847.974	29.750
847.996	29.795
848.019	29.886
848.042	30.374
848.064	31.166
848.087	31.992
848.109	32.945
848.132	33.782
848.154	33.473
848.177	32.403
848.199	31.245
848.222	30.350
848.244	29.930
848.267	29.894
848.289	29.773
848.312	29.791
848.334	29.754
848.357	29.777
848.379	29.809
848.402	29.930
848.424	30.542
848.447	31.489
848.469	32.418
848.492	33.644
848.514	34.685
848.537	35.024
848.559	35.088
848.582	34.757
848.604	34.409
848.627	34.713
848.649	35.521
848.672	36.132
848.694	36.224
848.717	35.827
848.739	34.689
848.761	33.539
848.784	32.355
848.806	31.176
848.829	30.245
848.851	30.000
848.874	29.926
848.896	29.832
848.919	29.859
848.941	29.832
848.963	29.930
848.986	30.212
849.008	30.864
849.031	31.953
849.053	33.343
849.075	34.794
849.098	36.582
849.120	37.614
849.143	37.975
849.165	38.719
849.187	38.933
849.210	38.768
849.232	38.537
849.254	37.163
849.277	35.700
849.299	34.323
849.322	32.824
849.344	31.059
849.366	30.107
849.389	29.948
849.411	29.841
849.433	29.741
849.456	29.850
849.478	29.773
849.500	29.773
849.523	29.841
849.545	30.542
849.567	31.644
849.590	32.982
849.612	34.244
849.634	35.473
849.657	35.707
849.679	35.016
849.701	33.784
849.724	32.363
849.746	30.759
849.768	30.022
849.791	29.886
849.813	29.832
849.835	29.689
849.857	29.713
849.880	29.703
849.902	29.764
849.924	29.675
849.946	29.745
849.969	29.731
849.991	29.754
850.013	29.741
850.036	29.786
850.058	29.745
850.080	29.750
850.102	29.768
850.125	29.708
850.147	29.750
850.169	29.764
850.191	29.764
850.214	29.708
850.236	29.689
850.258	29.736
850.280	29.791
850.302	29.638
850.325	29.795
850.347	29.713
850.369	29.671
850.391	29.671
850.414	29.773
850.436	29.773
850.458	29.708
850.480	29.795
850.502	29.827
850.524	29.764
850.547	29.736
850.569	29.713
850.591	29.768
850.613	29.754
850.635	29.703
850.658	29.750
850.680	29.791
850.702	29.745
850.724	29.689
850.746	29.685
850.768	29.675
850.791	29.671
850.813	29.661
850.835	29.675
850.857	29.717
850.879	29.727
850.901	29.652
850.923	29.809
850.945	29.699
850.968	29.800
850.990	29.717
851.012	29.745
851.034	29.689
851.056	29.759
851.078	29.759
851.100	29.805
851.122	29.717
851.144	29.727
851.167	29.745
851.189	29.638
851.211	29.675
851.233	29.694
851.255	29.786
851.277	29.731
851.299	29.782
851.321	29.764
851.343	29.773
851.365	29.786
851.387	29.689
851.409	29.699
851.431	29.652
851.453	29.609
851.476	29.643
851.498	29.671
851.520	29.717
851.542	29.689
851.564	29.795
851.586	29.713
851.608	29.741
851.630	29.699
851.652	29.713
851.674	29.736
851.696	29.694
851.718	29.717
851.740	29.699
851.762	29.703
851.784	29.759
851.806	29.736
851.828	29.685
851.850	29.722
851.872	29.745
851.894	29.722
851.916	29.666
851.938	29.736
851.960	29.736
851.982	29.699
852.004	29.675
852.026	29.786
852.048	29.736
852.070	29.717
852.092	29.750
852.114	29.750
852.135	29.699
852.157	29.786
852.179	29.773
852.201	29.750
852.223	29.680
852.245	29.699
852.267	29.717
852.289	29.680
852.311	29.764
852.333	29.791
852.355	29.722
852.377	29.754
852.399	29.786
852.421	29.759
852.442	29.754
852.464	29.657
852.486	29.680
852.508	29.731
852.530	29.675
852.552	29.708
852.574	29.768
852.596	29.754
852.618	29.727
852.639	29.694
852.661	29.680
852.683	29.741
852.705	29.845
852.727	29.717
852.749	29.675
852.771	29.713
852.792	29.745
852.814	29.722
852.836	29.764
852.858	29.745
852.880	29.722
852.902	29.786
852.924	29.727
852.945	29.717
852.967	29.754
852.989	29.717
853.011	29.754
853.033	29.717
853.055	29.773
853.076	29.680
853.098	29.689
853.120	29.713
853.142	29.643
853.164	29.638
853.185	29.685
853.207	29.791
853.229	29.694
853.251	29.786
853.272	29.731
853.294	29.782
853.316	29.773
853.338	29.722
853.360	29.722
853.381	29.731
853.403	29.722
853.425	29.736
853.447	29.713
853.468	29.713
853.490	29.643
853.512	29.685
853.534	29.713
853.555	29.717
853.577	29.671
853.599	29.703
853.620	29.713
853.642	29.717
853.664	29.800
853.686	29.741
853.707	29.736
853.729	29.671
853.751	29.647
853.773	29.731
853.794	29.727
853.816	29.745
853.838	29.703
853.859	29.754
853.881	29.800
853.903	29.768
853.924	29.800
853.946	29.689
853.968	29.741
853.989	29.731
854.011	29.741
854.033	29.750
854.054	29.717
854.076	29.823
854.098	29.703
854.119	29.708
854.141	29.713
854.163	29.661
854.184	29.638
