Wavelength (nm)	Rel. spec. intensity (dB)
848.087	29.854
848.109	29.827
848.132	29.859
848.154	29.805
848.177	29.827
848.199	29.899
848.222	29.845
848.244	29.777
848.267	29.832
848.289	29.872
848.312	29.859
848.334	29.827
848.357	29.754
848.379	29.773
848.402	29.877
848.424	29.823
848.447	29.850
848.469	29.795
848.492	29.890
848.514	29.917
848.537	29.886
848.559	29.859
848.582	29.827
848.604	29.841
848.627	29.791
848.649	29.850
848.672	29.877
848.694	29.850
848.717	29.809
848.739	29.754
848.761	29.872
848.784	29.859
848.806	29.800
848.829	29.759
848.851	29.814
848.874	29.786
848.896	29.850
848.919	29.823
848.941	29.827
848.963	29.868
848.986	29.859
849.008	29.827
849.031	29.736
849.053	29.814
849.075	29.773
849.098	29.872
849.120	29.832
849.143	29.814
849.165	29.827
849.187	29.832
849.210	29.841
849.232	29.777
849.254	29.814
849.277	29.809
849.299	29.854
849.322	29.800
849.344	29.809
849.366	29.868
849.389	29.818
849.411	29.886
849.433	29.903
849.456	29.899
849.478	29.854
849.500	29.768
849.523	29.823
849.545	29.868
849.567	29.836
849.590	29.845
849.612	29.877
849.634	29.930
849.657	29.845
849.679	29.841
849.701	29.814
849.724	29.777
849.746	29.841
849.768	29.890
849.791	29.921
849.813	29.795
849.835	29.814
849.857	29.832
849.880	29.841
849.902	29.886
849.924	29.854
849.946	29.814
849.969	29.841
849.991	29.814
850.013	29.814
850.036	29.814
850.058	29.845
850.080	29.854
850.102	29.850
850.125	29.814
850.147	29.777
850.169	29.859
850.191	29.850
850.214	29.814
850.236	29.809
850.258	29.894
850.280	29.773
850.302	29.782
850.325	29.850
850.347	29.850
850.369	29.814
850.391	29.877
850.414	29.736
850.436	29.827
850.458	29.809
850.480	29.903
850.502	29.872
850.524	29.845
850.547	29.872
850.569	29.832
850.591	29.854
850.613	29.886
850.635	29.886
850.658	29.859
850.680	29.818
850.702	29.827
850.724	29.818
850.746	29.881
850.768	29.827
850.791	29.809
850.813	29.939
850.835	29.890
850.857	29.791
850.879	29.786
850.901	29.823
850.923	29.841
850.945	29.859
850.968	29.832
850.990	29.759
851.012	29.795
851.034	29.863
851.056	29.934
851.078	29.809
851.100	29.818
851.122	29.841
851.144	29.814
851.167	29.832
851.189	29.890
851.211	29.859
851.233	29.854
851.255	29.886
851.277	29.786
851.299	29.782
851.321	29.782
851.343	29.850
851.365	29.850
851.387	29.809
851.409	29.827
851.431	29.877
851.453	29.881
851.476	29.859
851.498	29.800
851.520	29.823
851.542	29.805
851.564	29.827
851.586	29.899
851.608	29.890
851.630	29.899
851.652	29.850
851.674	29.886
851.696	29.845
851.718	29.890
851.740	29.854
851.762	29.863
851.784	29.948
851.806	30.141
851.828	30.378
851.850	30.821
851.872	31.261
851.894	31.830
851.916	32.170
851.938	31.602
851.960	30.569
851.982	30.077
852.004	29.934
852.026	29.872
852.048	29.814
852.070	29.886
852.092	29.877
852.114	29.917
852.135	29.890
852.157	29.890
852.179	29.868
852.201	29.917
852.223	29.939
852.245	30.116
852.267	30.330
852.289	30.824
852.311	31.351
852.333	32.052
852.355	32.876
852.377	33.615
852.399	34.208
852.421	34.631
852.442	34.574
852.464	35.234
852.486	36.377
852.508	37.318
852.530	37.257
852.552	37.042
852.574	36.055
852.596	34.342
852.618	33.077
852.639	31.658
852.661	30.667
852.683	30.116
852.705	29.969
852.727	29.952
852.749	29.921
852.771	29.877
852.792	29.886
852.814	29.969
852.836	30.000
852.858	30.060
852.880	30.286
852.902	30.515
852.924	31.045
852.945	31.959
852.967	33.132
852.989	34.630
853.011	36.149
853.033	37.184
853.055	37.579
853.076	37.777
853.098	37.379
853.120	36.797
853.142	35.555
853.164	34.011
853.185	32.509
853.207	30.803
853.229	30.154
853.251	30.017
853.272	29.894
853.294	29.899
853.316	29.912
853.338	29.930
853.360	29.886
853.381	29.859
853.403	29.894
853.425	29.809
853.447	29.868
853.468	29.850
853.490	29.863
853.512	29.969
853.534	30.048
853.555	30.603
853.577	31.089
853.599	31.532
853.620	30.745
853.642	30.137
853.664	29.850
853.686	29.894
853.707	29.818
853.729	29.818
853.751	29.782
853.773	29.832
853.794	29.854
853.816	29.850
853.838	29.899
853.859	29.863
853.881	29.845
853.903	29.894
853.924	29.836
853.946	29.841
853.968	29.877
853.989	29.795
854.011	29.868
854.033	29.854
854.054	29.877
854.076	29.890
854.098	29.934
854.119	29.850
854.141	29.850
854.163	29.754
854.184	29.899
854.206	29.795
854.228	29.841
854.249	29.854
854.271	29.841
854.292	29.800
854.314	29.818
854.336	29.786
854.357	29.899
854.379	29.908
854.401	29.854
854.422	29.827
854.444	29.926
854.465	29.841
854.487	29.791
854.509	29.782
854.530	29.768
854.552	29.805
854.573	29.814
854.595	29.832
854.617	29.845
854.638	29.827
854.660	29.827
854.681	29.969
854.703	29.890
854.724	29.934
854.746	29.859
854.767	29.809
854.789	29.952
854.811	29.863
854.832	29.917
854.854	29.836
854.875	29.827
854.897	29.859
854.918	29.814
854.940	29.908
854.961	29.836
854.983	29.894
855.004	29.836
855.026	29.827
855.047	29.845
855.069	29.863
855.090	29.832
855.112	29.827
855.133	29.800
855.155	29.768
855.176	29.791
855.198	29.863
855.219	29.890
855.241	29.894
855.262	29.881
855.284	29.908
855.305	29.800
855.327	29.795
855.348	29.805
855.370	29.836
855.391	29.877
855.413	29.859
855.434	29.841
855.456	29.859
855.477	29.777
855.498	29.877
855.520	29.908
855.541	29.850
855.563	29.818
855.584	29.754
855.606	29.805
855.627	29.863
855.648	29.939
855.670	29.934
855.691	29.881
855.713	29.903
855.734	29.868
855.755	29.836
855.777	29.877
855.798	29.782
855.820	29.823
855.841	29.832
855.862	29.845
855.884	29.805
855.905	29.832
855.927	29.974
855.948	29.863
855.969	29.754
855.991	29.863
856.012	29.818
856.033	29.773
856.055	29.877
856.076	29.827
856.098	29.805
856.119	29.791
856.140	29.827
856.162	29.754
856.183	29.899
856.204	29.809
856.226	29.836
856.247	29.845
856.268	29.845
856.290	29.899
856.311	29.800
856.332	29.795
856.354	29.903
856.375	29.809
856.396	29.903
856.417	29.795
856.439	29.827
856.460	29.717
856.481	29.823
856.503	29.800
856.524	29.832
856.545	29.791
856.566	29.818
856.588	29.805
856.609	29.809
856.630	29.827
856.652	29.841
856.673	29.854
856.694	29.773
856.715	29.800
856.737	29.863
856.758	29.872
856.779	29.841
856.800	29.782
856.822	29.777
856.843	29.777
856.864	29.768
856.885	29.759
856.907	29.841
856.928	29.809
856.949	29.845
856.970	29.952
856.991	29.903
857.013	29.805
857.034	29.881
857.055	29.845
857.076	29.832
857.097	29.894
857.119	29.877
857.140	29.823
857.161	29.877
857.182	29.827
857.203	29.818
857.225	29.841
857.246	29.827
857.267	29.841
857.288	29.899
857.309	29.823
857.330	29.827
857.352	29.809
857.373	29.759
857.394	29.777
857.415	29.782
857.436	29.818
857.457	29.814
857.479	29.863
857.500	29.832
857.521	29.859
857.542	29.863
857.563	29.814
857.584	29.800
857.605	29.850
857.626	29.818
857.648	29.881
857.669	29.886
857.690	29.868
857.711	29.764
857.732	29.827
857.753	29.890
857.774	29.877
857.795	29.827
857.816	29.800
857.837	29.845
857.859	29.850
857.880	29.894
857.901	29.786
857.922	29.805
857.943	29.850
857.964	29.845
857.985	29.827
858.006	29.768
858.027	29.809
858.048	29.859
858.069	29.832
