Wavelength (nm)	Rel. spec. intensity (dB)
844.161	29.836
844.184	29.854
844.207	29.791
844.230	29.868
844.253	29.795
844.276	29.886
844.300	29.832
844.323	29.854
844.346	29.868
844.369	29.917
844.392	29.795
844.415	29.827
844.438	29.827
844.461	29.841
844.484	29.859
844.507	29.827
844.530	29.823
844.553	29.823
844.576	29.836
844.599	29.727
844.622	29.841
844.645	29.841
844.668	29.854
844.692	29.800
844.715	29.795
844.738	29.903
844.761	29.795
844.784	29.809
844.807	29.795
844.830	29.836
844.853	29.912
844.876	29.903
844.899	29.877
844.922	29.832
844.945	29.854
844.968	29.823
844.991	29.868
845.014	29.782
845.037	29.881
845.060	29.894
845.083	29.886
845.105	29.795
845.128	29.786
845.151	29.894
845.174	29.854
845.197	29.872
845.220	29.827
845.243	29.863
845.266	29.814
845.289	29.886
845.312	29.850
845.335	29.850
845.358	29.908
845.381	29.899
845.404	29.832
845.427	29.886
845.450	29.827
845.473	29.827
845.496	29.795
845.518	29.841
845.541	29.832
845.564	29.764
845.587	29.886
845.610	29.832
845.633	29.827
845.656	29.832
845.679	29.872
845.702	29.832
845.724	29.917
845.747	29.850
845.770	29.921
845.793	29.859
845.816	29.859
845.839	29.881
845.862	29.894
845.885	29.764
845.907	29.805
845.930	29.850
845.953	29.850
845.976	29.845
845.999	29.890
846.022	29.934
846.045	29.800
846.067	29.832
846.090	29.854
846.113	29.768
846.136	29.872
846.159	29.859
846.182	29.786
846.204	29.782
846.227	29.872
846.250	29.814
846.273	29.782
846.296	29.836
846.318	29.868
846.341	29.863
846.364	29.805
846.387	29.854
846.410	29.845
846.432	29.805
846.455	29.845
846.478	29.868
846.501	29.836
846.523	29.759
846.546	29.814
846.569	29.859
846.592	29.809
846.614	29.845
846.637	29.800
846.660	29.818
846.683	29.795
846.705	29.863
846.728	29.903
846.751	29.859
846.774	29.818
846.796	29.809
846.819	29.850
846.842	29.795
846.865	29.854
846.887	29.836
846.910	29.736
846.933	29.768
846.955	29.795
846.978	29.832
847.001	29.908
847.023	29.850
847.046	29.859
847.069	29.921
847.092	29.777
847.114	29.877
847.137	29.836
847.160	29.872
847.182	29.845
847.205	29.863
847.228	29.899
847.250	29.877
847.273	29.868
847.296	29.832
847.318	29.850
847.341	29.782
847.364	29.850
847.386	29.863
847.409	29.854
847.432	29.890
847.454	29.872
847.477	29.921
847.499	29.827
847.522	29.899
847.545	29.805
847.567	29.800
847.590	29.823
847.613	29.863
847.635	29.791
847.658	29.863
847.680	29.805
847.703	29.868
847.726	29.903
847.748	29.912
847.771	29.795
847.793	29.827
847.816	29.750
847.839	29.836
847.861	29.823
847.884	29.841
847.906	29.868
847.929	29.818
847.951	29.841
847.974	29.854
847.996	29.859
848.019	29.899
848.042	29.841
848.064	29.863
848.087	29.881
848.109	29.791
848.132	29.850
848.154	29.827
848.177	29.841
848.199	29.827
848.222	29.841
848.244	29.836
848.267	29.881
848.289	29.841
848.312	29.872
848.334	29.841
848.357	29.791
848.379	29.827
848.402	29.845
848.424	29.872
848.447	29.805
848.469	29.877
848.492	29.903
848.514	29.827
848.537	29.832
848.559	29.890
848.582	29.845
848.604	29.894
848.627	29.832
848.649	30.086
848.672	30.535
848.694	30.860
848.717	31.290
848.739	31.886
848.761	32.183
848.784	32.448
848.806	31.348
848.829	30.330
848.851	30.035
848.874	29.934
848.896	29.868
848.919	29.868
848.941	29.832
848.963	29.903
848.986	30.017
849.008	30.849
849.031	32.159
849.053	33.595
849.075	35.028
849.098	36.528
849.120	37.699
849.143	38.135
849.165	37.393
849.187	35.361
849.210	33.762
849.232	32.114
849.254	30.722
849.277	30.145
849.299	29.974
849.322	29.965
849.344	29.974
849.366	30.065
849.389	30.813
849.411	31.593
849.433	32.490
849.456	33.259
849.478	32.204
849.500	30.535
849.523	30.069
849.545	29.903
849.567	29.903
849.590	29.890
849.612	29.934
849.634	29.877
849.657	29.863
849.679	29.818
849.701	29.827
849.724	29.827
849.746	29.841
849.768	29.868
849.791	29.881
849.813	29.859
849.835	29.872
849.857	29.881
849.880	29.908
849.902	29.859
849.924	29.877
849.946	29.827
849.969	29.921
849.991	29.800
850.013	29.773
850.036	29.814
850.058	29.903
850.080	29.868
850.102	29.890
850.125	29.845
850.147	29.795
850.169	29.823
850.191	29.773
850.214	29.809
850.236	29.894
850.258	29.800
850.280	29.814
850.302	29.845
850.325	29.805
850.347	29.795
850.369	29.863
850.391	29.863
850.414	29.832
850.436	29.795
850.458	29.899
850.480	29.841
850.502	29.764
850.524	29.854
850.547	29.791
850.569	29.890
850.591	29.939
850.613	29.800
850.635	29.863
850.658	29.899
850.680	29.877
850.702	29.943
850.724	29.850
850.746	29.899
850.768	29.814
850.791	29.836
850.813	29.845
850.835	29.800
850.857	29.823
850.879	29.903
850.901	29.854
850.923	29.773
850.945	29.850
850.968	29.800
850.990	29.832
851.012	29.903
851.034	29.890
851.056	29.859
851.078	29.791
851.100	29.868
851.122	29.836
851.144	29.809
851.167	29.795
851.189	29.836
851.211	29.850
851.233	29.845
851.255	29.827
851.277	29.814
851.299	29.805
851.321	29.863
851.343	29.917
851.365	29.805
851.387	29.805
851.409	29.859
851.431	29.777
851.453	29.912
851.476	29.832
851.498	29.881
851.520	29.809
851.542	29.782
851.564	29.859
851.586	29.814
851.608	29.814
851.630	29.827
851.652	29.777
851.674	29.903
851.696	29.877
851.718	29.786
851.740	29.805
851.762	29.750
851.784	29.850
851.806	29.818
851.828	29.768
851.850	29.845
851.872	29.850
851.894	29.795
851.916	29.800
851.938	29.832
851.960	29.854
851.982	29.859
852.004	29.836
852.026	29.894
852.048	29.868
852.070	29.881
852.092	29.791
852.114	29.841
852.135	29.750
852.157	29.832
852.179	29.845
852.201	29.818
852.223	29.814
852.245	29.872
852.267	29.836
852.289	29.836
852.311	29.814
852.333	29.791
852.355	29.841
852.377	29.877
852.399	29.800
852.421	29.859
852.442	29.877
852.464	29.832
852.486	29.717
852.508	29.809
852.530	29.939
852.552	29.899
852.574	29.786
852.596	29.872
852.618	29.805
852.639	29.868
852.661	29.845
852.683	29.827
852.705	29.777
852.727	29.832
852.749	29.841
852.771	29.868
852.792	29.814
852.814	29.832
852.836	29.859
852.858	29.773
852.880	29.782
852.902	29.850
852.924	29.836
852.945	29.921
852.967	29.768
852.989	29.814
853.011	29.863
853.033	29.877
853.055	29.845
853.076	29.809
853.098	29.836
853.120	29.814
853.142	29.777
853.164	29.786
853.185	29.777
853.207	29.886
853.229	29.854
853.251	29.832
853.272	29.872
853.294	29.868
853.316	29.899
853.338	29.841
853.360	29.827
853.381	29.841
853.403	29.754
853.425	29.777
853.447	29.759
853.468	29.859
853.490	29.809
853.512	29.791
853.534	29.814
853.555	29.872
853.577	29.773
853.599	29.886
853.620	29.854
853.642	29.836
853.664	29.845
853.686	29.850
853.707	29.877
853.729	29.795
853.751	29.823
853.773	29.868
853.794	29.800
853.816	29.791
853.838	29.859
853.859	29.872
853.881	29.872
853.903	29.863
853.924	29.872
853.946	29.836
853.968	29.845
853.989	29.845
854.011	29.863
854.033	29.814
854.054	29.854
854.076	29.754
854.098	29.805
854.119	29.791
854.141	29.877
