Wavelength (nm)	Rel. spec. intensity (dB)
845.702	29.722
845.724	29.708
845.747	29.722
845.770	29.768
845.793	29.754
845.816	29.750
845.839	29.680
845.862	29.731
845.885	29.666
845.907	29.717
845.930	29.731
845.953	29.750
845.976	29.745
845.999	29.809
846.022	29.731
846.045	29.694
846.067	29.638
846.090	29.722
846.113	29.722
846.136	29.741
846.159	29.759
846.182	29.768
846.204	29.731
846.227	29.764
846.250	29.713
846.273	29.754
846.296	29.754
846.318	29.722
846.341	29.782
846.364	29.741
846.387	29.832
846.410	29.722
846.432	29.666
846.455	29.754
846.478	29.731
846.501	29.722
846.523	29.773
846.546	29.745
846.569	29.759
846.592	29.773
846.614	29.685
846.637	29.736
846.660	29.750
846.683	29.786
846.705	29.809
846.728	29.727
846.751	29.685
846.774	29.795
846.796	29.741
846.819	29.773
846.842	29.759
846.865	29.777
846.887	29.703
846.910	29.731
846.933	29.741
846.955	29.759
846.978	29.750
847.001	29.754
847.023	29.722
847.046	29.727
847.069	29.764
847.092	29.713
847.114	29.754
847.137	29.745
847.160	29.708
847.182	29.685
847.205	29.786
847.228	29.745
847.250	29.727
847.273	29.671
847.296	29.703
847.318	29.741
847.341	29.800
847.364	29.703
847.386	29.782
847.409	29.764
847.432	29.713
847.454	29.722
847.477	29.703
847.499	29.689
847.522	29.713
847.545	29.754
847.567	29.827
847.590	29.814
847.613	29.800
847.635	29.717
847.658	29.722
847.680	29.786
847.703	29.768
847.726	29.731
847.748	29.727
847.771	29.638
847.793	29.750
847.816	29.764
847.839	29.731
847.861	29.782
847.884	29.868
847.906	29.814
847.929	29.773
847.951	29.713
847.974	29.759
847.996	29.795
848.019	29.809
848.042	29.764
848.064	29.741
848.087	29.750
848.109	29.754
848.132	29.741
848.154	29.722
848.177	29.791
848.199	29.764
848.222	29.722
848.244	29.731
848.267	29.805
848.289	29.741
848.312	29.731
848.334	29.708
848.357	29.713
848.379	29.841
848.402	29.727
848.424	29.666
848.447	29.750
848.469	29.731
848.492	29.750
848.514	29.782
848.537	29.754
848.559	29.764
848.582	29.736
848.604	29.741
848.627	29.731
848.649	29.786
848.672	29.699
848.694	29.745
848.717	29.736
848.739	29.818
848.761	29.713
848.784	29.782
848.806	29.722
848.829	29.731
848.851	29.685
848.874	29.764
848.896	29.800
848.919	29.800
848.941	29.741
848.963	29.773
848.986	29.699
849.008	29.741
849.031	29.786
849.053	29.868
849.075	29.657
849.098	29.680
849.120	29.657
849.143	29.736
849.165	29.741
849.187	29.773
849.210	29.722
849.232	29.795
849.254	29.754
849.277	29.745
849.299	29.741
849.322	29.754
849.344	29.791
849.366	29.764
849.389	29.731
849.411	29.736
849.433	29.759
849.456	29.722
849.478	29.671
849.500	29.713
849.523	29.722
849.545	29.791
849.567	29.754
849.590	29.786
849.612	29.759
849.634	29.759
849.657	29.638
849.679	29.750
849.701	29.791
849.724	29.680
849.746	29.731
849.768	29.708
849.791	29.722
849.813	29.823
849.835	29.800
849.857	29.795
849.880	29.841
849.902	29.845
849.924	29.713
849.946	29.699
849.969	29.680
849.991	29.777
850.013	29.717
850.036	29.694
850.058	29.814
850.080	29.750
850.102	29.741
850.125	29.713
850.147	29.754
850.169	29.727
850.191	29.768
850.214	29.786
850.236	29.750
850.258	29.750
850.280	29.736
850.302	29.805
850.325	30.069
850.347	31.075
850.369	31.970
850.391	32.683
850.414	32.605
850.436	31.467
850.458	30.554
850.480	30.073
850.502	29.948
850.524	29.841
850.547	29.736
850.569	29.782
850.591	29.899
850.613	30.449
850.635	31.749
850.658	32.849
850.680	33.838
850.702	33.753
850.724	32.380
850.746	31.239
850.768	30.199
850.791	29.795
850.813	29.759
850.835	29.827
850.857	29.854
850.879	29.859
850.901	29.717
850.923	29.727
850.945	29.764
850.968	29.754
850.990	29.773
851.012	29.736
851.034	29.671
851.056	29.782
851.078	29.795
851.100	29.823
851.122	29.731
851.144	29.791
851.167	29.777
851.189	29.863
851.211	29.764
851.233	29.727
851.255	29.777
851.277	29.863
851.299	29.782
851.321	29.745
851.343	29.832
851.365	29.680
851.387	29.795
851.409	29.800
851.431	29.745
851.453	29.736
851.476	29.703
851.498	29.791
851.520	29.814
851.542	29.800
851.564	29.703
851.586	29.754
851.608	29.722
851.630	29.754
851.652	29.722
851.674	29.786
851.696	29.722
851.718	29.727
851.740	29.741
851.762	29.823
851.784	29.699
851.806	29.782
851.828	29.791
851.850	29.768
851.872	29.773
851.894	29.741
851.916	29.768
851.938	29.708
851.960	29.694
851.982	29.685
852.004	29.786
852.026	29.750
852.048	29.777
852.070	29.745
852.092	29.754
852.114	29.814
852.135	29.809
852.157	29.814
852.179	29.768
852.201	29.745
852.223	29.827
852.245	29.764
852.267	29.736
852.289	29.754
852.311	29.671
852.333	29.754
852.355	29.764
852.377	29.773
852.399	29.736
852.421	29.805
852.442	29.814
852.464	29.809
852.486	29.750
852.508	29.741
852.530	29.624
852.552	29.666
852.574	29.741
852.596	29.727
852.618	29.745
852.639	29.666
852.661	29.736
852.683	29.727
852.705	29.727
852.727	29.727
852.749	29.708
852.771	29.814
852.792	29.750
852.814	29.754
852.836	29.694
852.858	29.754
852.880	29.708
852.902	29.800
852.924	29.685
852.945	29.727
852.967	29.759
852.989	29.768
853.011	29.699
853.033	29.777
853.055	29.814
853.076	29.827
853.098	29.708
853.120	29.736
853.142	29.786
853.164	29.809
853.185	29.786
853.207	29.805
853.229	29.773
853.251	29.713
853.272	29.809
853.294	29.736
853.316	29.764
853.338	29.741
853.360	29.703
853.381	29.708
853.403	29.689
853.425	29.773
853.447	29.717
853.468	29.818
853.490	29.750
853.512	29.694
853.534	29.717
853.555	29.777
853.577	29.736
853.599	29.791
853.620	29.782
853.642	29.717
853.664	29.764
853.686	29.782
853.707	29.717
853.729	29.717
853.751	29.782
853.773	29.795
853.794	29.745
853.816	29.741
853.838	29.764
853.859	29.731
853.881	29.731
853.903	29.741
853.924	29.713
853.946	29.768
853.968	29.791
853.989	29.791
854.011	29.795
854.033	29.671
854.054	29.773
854.076	29.773
854.098	29.777
854.119	29.745
854.141	29.736
854.163	29.759
854.184	29.764
854.206	29.777
854.228	29.717
854.249	29.727
854.271	29.731
854.292	29.717
854.314	29.689
854.336	29.736
854.357	29.703
854.379	29.768
854.401	29.741
854.422	29.680
854.444	29.768
854.465	29.768
854.487	29.814
854.509	29.727
854.530	29.722
854.552	29.773
854.573	29.713
854.595	29.750
854.617	29.791
854.638	29.800
854.660	29.773
854.681	29.768
854.703	29.689
854.724	29.717
854.746	29.652
854.767	29.689
854.789	29.805
854.811	29.800
854.832	29.717
854.854	29.773
854.875	29.827
854.897	29.722
854.918	29.699
854.940	29.717
854.961	29.736
854.983	29.685
855.004	29.685
855.026	29.652
855.047	29.717
855.069	29.717
855.090	29.759
855.112	29.727
855.133	29.764
855.155	29.750
855.176	29.699
855.198	29.703
855.219	29.759
855.241	29.809
855.262	29.795
855.284	29.754
855.305	29.764
855.327	29.750
855.348	29.814
855.370	29.741
855.391	29.741
855.413	29.773
855.434	29.717
855.456	29.759
855.477	29.694
855.498	29.736
855.520	29.722
855.541	29.777
855.563	29.699
855.584	29.800
855.606	29.759
855.627	29.868
855.648	29.777
855.670	29.764
