Wavelength (nm)	Rel. spec. intensity (dB)
848.402	29.741
848.424	29.809
848.447	29.736
848.469	29.764
848.492	29.754
848.514	29.791
848.537	29.745
848.559	29.773
848.582	29.791
848.604	29.805
848.627	29.764
848.649	29.768
848.672	29.782
848.694	29.759
848.717	29.764
848.739	29.722
848.761	29.694
848.784	29.795
848.806	29.713
848.829	29.814
848.851	29.764
848.874	29.750
848.896	29.759
848.919	29.800
848.941	29.689
848.963	29.773
848.986	29.759
849.008	29.809
849.031	29.823
849.053	29.809
849.075	29.736
849.098	29.777
849.120	29.773
849.143	29.800
849.165	29.754
849.187	29.841
849.210	29.768
849.232	29.773
849.254	29.777
849.277	29.773
849.299	29.722
849.322	29.717
849.344	29.685
849.366	29.764
849.389	29.741
849.411	29.800
849.433	29.795
849.456	29.827
849.478	29.764
849.500	29.736
849.523	29.754
849.545	29.741
849.567	29.786
849.590	29.841
849.612	29.754
849.634	29.736
849.657	29.741
849.679	29.764
849.701	29.768
849.724	29.750
849.746	29.773
849.768	29.777
849.791	29.731
849.813	29.786
849.835	29.800
849.857	29.800
849.880	29.782
849.902	29.809
849.924	29.713
849.946	29.750
849.969	29.782
849.991	29.809
850.013	29.836
850.036	29.773
850.058	29.800
850.080	29.768
850.102	29.750
850.125	29.731
850.147	29.809
850.169	29.791
850.191	29.786
850.214	29.827
850.236	29.805
850.258	29.722
850.280	29.791
850.302	29.722
850.325	29.736
850.347	29.731
850.369	29.768
850.391	29.791
850.414	29.764
850.436	29.745
850.458	29.745
850.480	29.689
850.502	29.754
850.524	29.768
850.547	29.736
850.569	29.782
850.591	29.777
850.613	29.823
850.635	29.768
850.658	29.768
850.680	29.841
850.702	29.671
850.724	29.727
850.746	29.814
850.768	29.786
850.791	29.850
850.813	29.708
850.835	29.736
850.857	29.782
850.879	29.717
850.901	29.786
850.923	29.836
850.945	29.717
850.968	29.764
850.990	29.805
851.012	29.795
851.034	29.782
851.056	29.759
851.078	29.777
851.100	29.782
851.122	29.777
851.144	29.791
851.167	29.689
851.189	29.777
851.211	29.750
851.233	29.750
851.255	29.800
851.277	29.736
851.299	29.800
851.321	29.782
851.343	29.786
851.365	29.777
851.387	29.689
851.409	29.777
851.431	29.827
851.453	29.736
851.476	29.777
851.498	29.791
851.520	29.764
851.542	29.764
851.564	29.759
851.586	29.759
851.608	29.832
851.630	29.782
851.652	29.800
851.674	29.754
851.696	29.754
851.718	29.759
851.740	29.727
851.762	29.814
851.784	29.768
851.806	29.818
851.828	29.800
851.850	29.777
851.872	29.759
851.894	29.754
851.916	29.786
851.938	29.736
851.960	29.764
851.982	29.727
852.004	29.722
852.026	29.731
852.048	29.754
852.070	29.782
852.092	29.786
852.114	29.764
852.135	29.736
852.157	29.859
852.179	29.823
852.201	29.805
852.223	29.791
852.245	29.768
852.267	29.791
852.289	29.782
852.311	29.736
852.333	29.773
852.355	29.800
852.377	29.823
852.399	29.795
852.421	29.750
852.442	29.768
852.464	29.736
852.486	29.727
852.508	29.768
852.530	29.777
852.552	29.768
852.574	29.773
852.596	29.717
852.618	29.768
852.639	29.764
852.661	29.786
852.683	29.703
852.705	29.768
852.727	29.768
852.749	29.791
852.771	29.795
852.792	29.773
852.814	29.708
852.836	29.717
852.858	29.722
852.880	29.745
852.902	29.727
852.924	29.759
852.945	29.800
852.967	29.841
852.989	29.777
853.011	29.764
853.033	29.814
853.055	29.827
853.076	29.708
853.098	29.713
853.120	29.850
853.142	29.809
853.164	29.708
853.185	29.832
853.207	29.759
853.229	29.777
853.251	29.823
853.272	30.043
853.294	31.055
853.316	32.127
853.338	33.263
853.360	34.237
853.381	34.556
853.403	33.840
853.425	32.704
853.447	31.271
853.468	30.237
853.490	29.827
853.512	29.818
853.534	29.768
853.555	29.814
853.577	29.823
853.599	29.872
853.620	29.809
853.642	29.854
853.664	30.048
853.686	30.711
853.707	31.647
853.729	31.581
853.751	30.496
853.773	29.917
853.794	29.823
853.816	29.786
853.838	29.786
853.859	29.827
853.881	29.777
853.903	29.777
853.924	29.791
853.946	29.741
853.968	29.841
853.989	29.791
854.011	29.768
854.033	29.764
854.054	29.786
854.076	29.745
854.098	29.708
854.119	29.713
854.141	29.754
854.163	29.809
854.184	29.786
854.206	29.703
854.228	29.727
854.249	29.786
854.271	29.814
854.292	29.759
854.314	29.791
854.336	29.823
854.357	29.768
854.379	29.832
854.401	29.795
854.422	29.863
854.444	29.827
854.465	29.754
854.487	29.777
854.509	29.773
854.530	29.836
854.552	29.795
854.573	29.773
854.595	29.872
854.617	29.795
854.638	29.736
854.660	29.731
854.681	29.809
854.703	29.708
854.724	29.795
854.746	29.777
854.767	29.764
854.789	29.782
854.811	29.750
854.832	29.764
854.854	29.764
854.875	29.741
854.897	29.741
854.918	29.717
854.940	29.773
854.961	29.786
854.983	29.745
855.004	29.827
855.026	29.809
855.047	29.694
855.069	29.694
855.090	29.777
855.112	29.832
855.133	29.764
855.155	29.786
855.176	29.736
855.198	29.795
855.219	29.814
855.241	29.717
855.262	29.722
855.284	29.773
855.305	29.759
855.327	29.786
855.348	29.768
855.370	29.809
855.391	29.764
855.413	29.782
855.434	29.768
855.456	29.717
855.477	29.782
855.498	29.795
855.520	29.722
855.541	29.722
855.563	29.759
855.584	29.741
855.606	29.782
855.627	29.782
855.648	29.727
855.670	29.786
855.691	29.764
855.713	29.736
855.734	29.764
855.755	29.722
855.777	29.782
855.798	29.764
855.820	29.754
855.841	29.768
855.862	29.877
855.884	29.782
855.905	29.764
855.927	29.786
855.948	29.786
855.969	29.782
855.991	29.745
856.012	29.795
856.033	29.795
856.055	29.768
856.076	29.777
856.098	29.791
856.119	29.708
856.140	29.782
856.162	29.722
856.183	29.754
856.204	29.768
856.226	29.736
856.247	29.731
856.268	29.727
856.290	29.814
856.311	29.836
856.332	29.703
856.354	29.786
856.375	29.764
856.396	29.791
856.417	29.731
856.439	29.745
856.460	29.745
856.481	29.768
856.503	29.713
856.524	29.791
856.545	29.768
856.566	29.750
856.588	29.657
856.609	29.773
856.630	29.722
856.652	29.731
856.673	29.731
856.694	29.741
856.715	29.759
856.737	29.782
856.758	29.782
856.779	29.823
856.800	29.814
856.822	29.694
856.843	29.727
856.864	29.795
856.885	29.717
856.907	29.768
856.928	29.777
856.949	29.773
856.970	29.671
856.991	29.750
857.013	29.782
857.034	29.764
857.055	29.703
857.076	29.754
857.097	29.741
857.119	29.777
857.140	29.777
857.161	29.809
857.182	29.791
857.203	29.708
857.225	29.731
857.246	29.745
857.267	29.795
857.288	29.754
857.309	29.754
857.330	29.795
857.352	29.745
857.373	29.814
857.394	29.750
857.415	29.795
857.436	29.741
857.457	29.694
857.479	29.713
857.500	29.754
857.521	29.764
857.542	29.773
857.563	29.805
857.584	29.773
857.605	29.717
857.626	29.750
857.648	29.759
857.669	29.731
857.690	29.731
857.711	29.727
857.732	29.795
857.753	29.814
857.774	29.836
857.795	29.777
857.816	29.736
857.837	29.795
857.859	29.741
857.880	29.827
857.901	29.773
857.922	29.754
857.943	29.727
857.964	29.759
857.985	29.777
858.006	29.777
858.027	29.750
858.048	29.795
858.069	29.791
858.090	29.786
858.111	29.777
858.132	29.699
858.153	29.823
858.174	29.764
858.195	29.703
858.216	29.713
858.237	29.777
858.258	29.809
858.279	29.791
858.300	29.795
858.321	29.731
858.342	29.759
858.363	29.809
