Wavelength (nm)	Rel. spec. intensity (dB)
850.080	29.741
850.102	29.717
850.125	29.699
850.147	29.652
850.169	29.703
850.191	29.741
850.214	29.661
850.236	29.764
850.258	29.727
850.280	29.717
850.302	29.713
850.325	29.699
850.347	29.741
850.369	29.745
850.391	29.791
850.414	29.731
850.436	29.717
850.458	29.689
850.480	29.727
850.502	29.703
850.524	29.713
850.547	29.699
850.569	29.717
850.591	29.652
850.613	29.713
850.635	29.633
850.658	29.699
850.680	29.708
850.702	29.795
850.724	29.694
850.746	29.703
850.768	29.768
850.791	29.750
850.813	29.736
850.835	29.750
850.857	29.782
850.879	29.689
850.901	29.647
850.923	29.717
850.945	29.791
850.968	29.717
850.990	29.805
851.012	29.764
851.034	29.708
851.056	29.731
851.078	29.727
851.100	29.782
851.122	29.722
851.144	29.782
851.167	29.731
851.189	29.689
851.211	29.717
851.233	29.731
851.255	29.713
851.277	29.652
851.299	29.628
851.321	29.685
851.343	29.754
851.365	29.703
851.387	29.741
851.409	29.652
851.431	29.666
851.453	29.685
851.476	29.703
851.498	29.736
851.520	29.722
851.542	29.768
851.564	29.768
851.586	29.643
851.608	29.699
851.630	29.754
851.652	29.800
851.674	29.773
851.696	29.731
851.718	29.713
851.740	29.685
851.762	29.754
851.784	29.717
851.806	29.791
851.828	29.764
851.850	29.666
851.872	29.694
851.894	29.657
851.916	29.661
851.938	29.736
851.960	29.717
851.982	29.736
852.004	29.736
852.026	29.750
852.048	29.717
852.070	29.703
852.092	29.731
852.114	29.773
852.135	29.708
852.157	29.736
852.179	29.722
852.201	29.768
852.223	29.773
852.245	29.731
852.267	29.741
852.289	29.782
852.311	29.694
852.333	29.727
852.355	29.741
852.377	29.768
852.399	29.754
852.421	29.764
852.442	29.759
852.464	29.754
852.486	29.722
852.508	29.708
852.530	29.768
852.552	29.809
852.574	29.708
852.596	29.736
852.618	29.671
852.639	29.750
852.661	29.745
852.683	29.689
852.705	29.736
852.727	29.777
852.749	29.675
852.771	29.689
852.792	29.717
852.814	29.795
852.836	29.754
852.858	29.727
852.880	29.703
852.902	29.675
852.924	29.694
852.945	29.708
852.967	29.727
852.989	29.782
853.011	29.680
853.033	29.768
853.055	29.731
853.076	29.736
853.098	29.717
853.120	29.699
853.142	29.689
853.164	29.713
853.185	29.791
853.207	29.805
853.229	29.727
853.251	29.764
853.272	29.717
853.294	29.666
853.316	29.703
853.338	29.703
853.360	29.759
853.381	29.708
853.403	29.727
853.425	29.759
853.447	29.786
853.468	29.773
853.490	29.717
853.512	29.791
853.534	29.745
853.555	29.703
853.577	29.800
853.599	29.759
853.620	29.703
853.642	29.671
853.664	29.786
853.686	29.768
853.707	29.759
853.729	29.685
853.751	29.722
853.773	29.745
853.794	29.750
853.816	29.750
853.838	29.731
853.859	29.754
853.881	29.773
853.903	29.759
853.924	29.832
853.946	29.717
853.968	29.786
853.989	29.795
854.011	29.713
854.033	29.713
854.054	29.675
854.076	29.694
854.098	29.745
854.119	29.703
854.141	29.754
854.163	29.827
854.184	29.764
854.206	29.764
854.228	29.689
854.249	29.717
854.271	29.675
854.292	29.675
854.314	29.717
854.336	29.773
854.357	29.764
854.379	29.722
854.401	29.685
854.422	29.777
854.444	29.689
854.465	29.703
854.487	29.699
854.509	29.741
854.530	29.754
854.552	29.759
854.573	29.708
854.595	29.782
854.617	29.671
854.638	29.685
854.660	29.773
854.681	29.791
854.703	29.736
854.724	29.777
854.746	29.699
854.767	29.694
854.789	29.699
854.811	29.722
854.832	29.680
854.854	29.708
854.875	29.731
854.897	29.717
854.918	29.736
854.940	29.773
854.961	29.872
854.983	30.410
855.004	31.159
855.026	32.151
855.047	33.096
855.069	33.621
855.090	33.456
855.112	32.617
855.133	31.370
855.155	30.265
855.176	29.926
855.198	29.754
855.219	29.745
855.241	29.764
855.262	29.741
855.284	29.827
855.305	29.722
855.327	29.759
855.348	29.727
855.370	29.727
855.391	29.764
855.413	29.652
855.434	29.717
855.456	29.768
855.477	29.680
855.498	29.777
855.520	29.773
855.541	29.805
855.563	29.666
855.584	29.759
855.606	29.759
855.627	29.713
855.648	29.805
855.670	29.703
855.691	29.741
855.713	29.685
855.734	29.717
855.755	29.727
855.777	29.675
855.798	29.722
855.820	29.768
855.841	29.741
855.862	29.699
855.884	29.736
855.905	29.713
855.927	29.657
855.948	29.689
855.969	29.685
855.991	29.703
856.012	29.703
856.033	29.768
856.055	29.699
856.076	29.685
856.098	29.694
856.119	29.741
856.140	29.754
856.162	29.722
856.183	29.722
856.204	29.703
856.226	29.657
856.247	29.671
856.268	29.713
856.290	29.764
856.311	29.689
856.332	29.717
856.354	29.750
856.375	29.768
856.396	29.795
856.417	29.708
856.439	29.727
856.460	29.750
856.481	29.736
856.503	29.680
856.524	29.694
856.545	29.708
856.566	29.754
856.588	29.750
856.609	29.717
856.630	29.661
856.652	29.699
856.673	29.722
856.694	29.768
856.715	29.689
856.737	29.703
856.758	29.614
856.779	29.689
856.800	29.773
856.822	29.703
856.843	29.768
856.864	29.768
856.885	29.795
856.907	29.741
856.928	29.750
856.949	29.750
856.970	29.643
856.991	29.722
857.013	29.750
857.034	29.638
857.055	29.699
857.076	29.731
857.097	29.643
857.119	29.832
857.140	29.745
857.161	29.768
857.182	29.750
857.203	29.745
857.225	29.741
857.246	29.795
857.267	29.708
857.288	29.722
857.309	29.675
857.330	29.708
857.352	29.745
857.373	29.773
857.394	29.741
857.415	29.741
857.436	29.750
857.457	29.717
857.479	29.854
857.500	29.727
857.521	29.754
857.542	29.694
857.563	29.768
857.584	29.782
857.605	29.736
857.626	29.717
857.648	29.777
857.669	29.736
857.690	29.699
857.711	29.731
857.732	29.786
857.753	29.759
857.774	29.764
857.795	29.717
857.816	29.647
857.837	29.773
857.859	29.717
857.880	29.786
857.901	29.694
857.922	29.685
857.943	29.694
857.964	29.689
857.985	29.689
858.006	29.745
858.027	29.694
858.048	29.657
858.069	29.736
858.090	29.699
858.111	29.736
858.132	29.768
858.153	29.777
858.174	29.750
858.195	29.680
858.216	29.703
858.237	29.685
858.258	29.773
858.279	29.689
858.300	29.703
858.321	29.694
858.342	29.754
858.363	29.754
858.384	29.699
858.406	29.736
858.426	29.745
858.447	29.722
858.468	29.717
858.489	29.713
858.510	29.638
858.531	29.619
858.552	29.643
858.573	29.827
858.594	29.717
858.615	29.576
858.636	29.675
858.657	29.671
858.678	29.652
858.699	29.699
858.720	29.708
858.741	29.768
858.762	29.708
858.783	29.745
858.804	29.699
858.825	29.741
858.846	29.722
858.867	29.736
858.888	29.717
858.908	29.750
858.929	29.671
858.950	29.713
858.971	29.685
858.992	29.717
859.013	29.717
859.034	29.754
859.055	29.722
859.076	29.680
859.097	29.777
859.117	29.768
859.138	29.661
859.159	29.689
859.180	29.699
859.201	29.754
859.222	29.750
859.243	29.699
859.264	29.652
859.284	29.754
859.305	29.795
859.326	29.680
859.347	29.727
859.368	29.782
859.389	29.661
859.410	29.786
859.430	29.736
859.451	29.786
859.472	29.713
859.493	29.795
859.514	29.736
859.534	29.713
859.555	29.736
859.576	29.731
859.597	29.661
859.618	29.675
859.639	29.727
859.659	29.699
859.680	29.685
859.701	29.694
859.722	29.736
859.742	29.736
859.763	29.750
859.784	29.717
859.805	29.628
859.826	29.727
859.846	29.731
859.867	29.764
859.888	29.745
859.909	29.759
859.929	29.782
859.950	29.689
859.971	29.722
859.992	29.754
860.012	29.647
860.033	29.657
860.054	29.689
