Wavelength (nm)	Rel. spec. intensity (dB)
848.672	29.713
848.694	29.708
848.717	29.713
848.739	29.736
848.761	29.795
848.784	29.773
848.806	29.727
848.829	29.731
848.851	29.675
848.874	29.680
848.896	29.736
848.919	29.741
848.941	29.727
848.963	29.777
848.986	29.717
849.008	29.754
849.031	29.741
849.053	29.782
849.075	29.722
849.098	29.717
849.120	29.841
849.143	29.795
849.165	29.713
849.187	29.727
849.210	29.809
849.232	29.850
849.254	29.750
849.277	29.773
849.299	29.768
849.322	29.800
849.344	29.759
849.366	29.754
849.389	29.731
849.411	29.750
849.433	29.782
849.456	29.782
849.478	29.827
849.500	29.750
849.523	29.832
849.545	29.717
849.567	29.685
849.590	29.800
849.612	29.841
849.634	29.795
849.657	29.777
849.679	29.800
849.701	29.731
849.724	29.703
849.746	29.708
849.768	29.703
849.791	29.764
849.813	29.759
849.835	29.703
849.857	29.727
849.880	29.768
849.902	29.708
849.924	29.736
849.946	29.750
849.969	29.717
849.991	29.823
850.013	29.795
850.036	29.731
850.058	29.741
850.080	29.745
850.102	29.731
850.125	29.675
850.147	29.717
850.169	29.713
850.191	29.699
850.214	29.777
850.236	29.791
850.258	29.863
850.280	29.741
850.302	29.777
850.325	29.750
850.347	29.736
850.369	29.713
850.391	29.759
850.414	29.768
850.436	29.713
850.458	29.675
850.480	29.759
850.502	29.689
850.524	29.699
850.547	29.786
850.569	29.768
850.591	29.754
850.613	29.736
850.635	29.731
850.658	29.736
850.680	29.791
850.702	29.727
850.724	29.661
850.746	29.671
850.768	29.689
850.791	29.773
850.813	29.795
850.835	29.689
850.857	29.717
850.879	29.814
850.901	29.708
850.923	29.814
850.945	29.754
850.968	29.782
850.990	29.736
851.012	29.736
851.034	29.777
851.056	29.731
851.078	29.694
851.100	29.768
851.122	29.661
851.144	29.777
851.167	29.750
851.189	29.759
851.211	29.689
851.233	29.745
851.255	29.795
851.277	29.741
851.299	29.703
851.321	29.741
851.343	29.759
851.365	29.773
851.387	29.745
851.409	29.713
851.431	29.736
851.453	29.736
851.476	29.722
851.498	29.731
851.520	29.703
851.542	29.754
851.564	29.791
851.586	29.689
851.608	29.759
851.630	29.795
851.652	29.727
851.674	29.777
851.696	29.782
851.718	29.754
851.740	29.694
851.762	29.699
851.784	29.666
851.806	29.727
851.828	29.708
851.850	29.791
851.872	29.759
851.894	29.717
851.916	29.805
851.938	29.713
851.960	29.703
851.982	29.759
852.004	29.754
852.026	29.745
852.048	29.754
852.070	29.768
852.092	29.832
852.114	29.800
852.135	29.727
852.157	29.731
852.179	29.759
852.201	29.731
852.223	29.754
852.245	29.731
852.267	29.786
852.289	29.786
852.311	29.773
852.333	29.708
852.355	29.722
852.377	29.717
852.399	29.764
852.421	29.722
852.442	29.708
852.464	29.791
852.486	29.795
852.508	29.745
852.530	29.685
852.552	29.727
852.574	29.777
852.596	29.814
852.618	29.750
852.639	29.768
852.661	29.666
852.683	29.777
852.705	29.717
852.727	29.754
852.749	29.773
852.771	29.708
852.792	29.791
852.814	29.759
852.836	29.731
852.858	29.754
852.880	29.675
852.902	29.731
852.924	29.727
852.945	29.791
852.967	29.795
852.989	29.768
853.011	29.741
853.033	29.699
853.055	29.745
853.076	29.759
853.098	29.782
853.120	29.713
853.142	29.754
853.164	29.754
853.185	29.759
853.207	29.741
853.229	29.764
853.251	29.805
853.272	29.773
853.294	29.671
853.316	29.717
853.338	29.727
853.360	29.727
853.381	29.768
853.403	29.868
853.425	29.741
853.447	29.741
853.468	29.750
853.490	29.708
853.512	29.782
853.534	30.103
853.555	30.959
853.577	31.965
853.599	33.265
853.620	34.533
853.642	35.339
853.664	35.362
853.686	34.493
853.707	33.531
853.729	32.467
853.751	31.284
853.773	30.290
853.794	29.948
853.816	29.768
853.838	29.850
853.859	29.809
853.881	29.773
853.903	29.786
853.924	29.814
853.946	29.741
853.968	29.671
853.989	29.727
854.011	29.795
854.033	29.809
854.054	29.666
854.076	29.759
854.098	29.736
854.119	29.786
854.141	29.764
854.163	29.777
854.184	29.689
854.206	29.727
854.228	29.722
854.249	29.671
854.271	29.786
854.292	29.768
854.314	29.708
854.336	29.805
854.357	29.754
854.379	29.750
854.401	29.731
854.422	29.736
854.444	29.731
854.465	29.741
854.487	29.759
854.509	29.786
854.530	29.759
854.552	29.750
854.573	29.754
854.595	29.786
854.617	29.768
854.638	29.741
854.660	29.722
854.681	29.736
854.703	29.754
854.724	29.685
854.746	29.731
854.767	29.722
854.789	29.777
854.811	29.759
854.832	29.764
854.854	29.823
854.875	29.652
854.897	29.694
854.918	29.795
854.940	29.689
854.961	29.727
854.983	29.745
855.004	29.736
855.026	29.777
855.047	29.731
855.069	29.786
855.090	29.809
855.112	29.791
855.133	29.814
855.155	29.764
855.176	29.800
855.198	29.731
855.219	29.814
855.241	29.736
855.262	29.680
855.284	29.727
855.305	29.736
855.327	29.754
855.348	29.722
855.370	29.731
855.391	29.782
855.413	29.818
855.434	29.694
855.456	29.727
855.477	29.713
855.498	29.754
855.520	29.768
855.541	29.713
855.563	29.736
855.584	29.754
855.606	29.750
855.627	29.754
855.648	29.832
855.670	29.754
855.691	29.791
855.713	29.666
855.734	29.745
855.755	29.717
855.777	29.727
855.798	29.754
855.820	29.703
855.841	29.773
855.862	29.750
855.884	29.703
855.905	29.750
855.927	29.764
855.948	29.764
855.969	29.722
855.991	29.736
856.012	29.680
856.033	29.759
856.055	29.717
856.076	29.708
856.098	29.800
856.119	29.731
856.140	29.754
856.162	29.782
856.183	29.768
856.204	29.818
856.226	29.736
856.247	29.736
856.268	29.736
856.290	29.814
856.311	29.786
856.332	29.754
856.354	29.795
856.375	29.754
856.396	29.777
856.417	29.736
856.439	29.759
856.460	29.727
856.481	29.841
856.503	29.731
856.524	29.768
856.545	29.699
856.566	29.694
856.588	29.680
856.609	29.745
856.630	29.827
856.652	29.703
856.673	29.675
856.694	29.795
856.715	29.699
856.737	29.657
856.758	29.717
856.779	29.661
856.800	29.764
856.822	29.809
856.843	29.727
856.864	29.699
856.885	29.764
856.907	29.786
856.928	29.754
856.949	29.657
856.970	29.731
856.991	29.764
857.013	29.750
857.034	29.736
857.055	29.689
857.076	29.708
857.097	29.657
857.119	29.731
857.140	29.768
857.161	29.717
857.182	29.736
857.203	29.661
857.225	29.703
857.246	29.699
857.267	29.722
857.288	29.768
857.309	29.845
857.330	29.703
857.352	29.754
857.373	29.689
857.394	29.736
857.415	29.722
857.436	29.717
857.457	29.703
857.479	29.685
857.500	29.754
857.521	29.713
857.542	29.703
857.563	29.703
857.584	29.717
857.605	29.717
857.626	29.722
857.648	29.773
857.669	29.750
857.690	29.750
857.711	29.773
857.732	29.759
857.753	29.703
857.774	29.777
857.795	29.782
857.816	29.745
857.837	29.782
857.859	29.818
857.880	29.823
857.901	29.759
857.922	29.827
857.943	29.759
857.964	29.750
857.985	29.814
858.006	29.827
858.027	29.699
858.048	29.759
858.069	29.791
858.090	29.741
858.111	29.736
858.132	29.777
858.153	29.736
858.174	29.731
858.195	29.703
858.216	29.727
858.237	29.731
858.258	29.731
858.279	29.754
858.300	29.708
858.321	29.727
858.342	29.786
858.363	29.731
858.384	29.754
858.406	29.708
858.426	29.809
858.447	29.750
858.468	29.764
858.489	29.657
858.510	29.754
858.531	29.731
858.552	29.731
858.573	29.773
858.594	29.736
858.615	29.768
858.636	29.782
858.657	29.836
