Wavelength (nm)	Rel. spec. intensity (dB)
823.087	29.741
823.113	29.689
823.139	29.694
823.165	29.703
823.191	29.823
823.217	29.708
823.243	29.754
823.268	29.713
823.294	29.741
823.320	29.736
823.346	29.680
823.372	29.703
823.398	29.722
823.424	29.800
823.450	29.643
823.475	29.722
823.501	29.708
823.527	29.713
823.553	29.750
823.579	29.741
823.605	29.741
823.630	29.727
823.656	29.773
823.682	29.727
823.708	29.736
823.734	29.708
823.760	29.727
823.785	29.791
823.811	29.689
823.837	29.708
823.863	29.703
823.889	29.754
823.914	29.689
823.940	29.643
823.966	29.703
823.992	29.694
824.018	29.745
824.043	29.717
824.069	29.699
824.095	29.754
824.121	29.722
824.147	29.754
824.172	29.741
824.198	29.661
824.224	29.764
824.250	29.741
824.275	29.736
824.301	29.722
824.327	29.680
824.353	29.694
824.378	29.736
824.404	29.685
824.430	29.791
824.456	29.731
824.481	29.675
824.507	29.708
824.533	29.750
824.558	29.675
824.584	29.741
824.610	29.717
824.636	29.727
824.661	29.736
824.687	29.727
824.713	29.791
824.738	29.713
824.764	29.805
824.790	29.764
824.815	29.795
824.841	29.814
824.867	29.708
824.892	29.671
824.918	29.745
824.944	29.731
824.969	29.786
824.995	29.791
825.021	29.736
825.047	29.694
825.072	29.750
825.098	29.699
825.123	29.699
825.149	29.736
825.175	29.777
825.200	29.750
825.226	29.832
825.252	29.703
825.277	29.764
825.303	29.717
825.328	29.754
825.354	29.773
825.380	29.741
825.405	29.727
825.431	29.764
825.457	29.643
825.482	29.736
825.508	29.717
825.533	29.764
825.559	29.736
825.585	29.708
825.610	29.717
825.636	29.745
825.661	29.764
825.687	29.745
825.712	29.717
825.738	29.731
825.764	29.722
825.789	29.699
825.815	29.754
825.840	29.777
825.866	29.750
825.891	29.722
825.917	29.722
825.942	29.777
825.968	29.694
825.994	29.685
826.019	29.685
826.045	29.661
826.070	29.722
826.096	29.750
826.121	29.647
826.147	29.764
826.172	29.731
826.198	29.708
826.223	29.731
826.249	29.782
826.274	29.736
826.300	29.689
826.325	29.717
826.351	29.741
826.376	29.786
826.402	29.713
826.427	29.754
826.453	29.717
826.478	29.754
826.504	29.675
826.529	29.624
826.555	29.717
826.580	29.722
826.605	29.727
826.631	29.759
826.656	29.731
826.682	29.671
826.707	29.773
826.733	29.759
826.758	29.795
826.784	29.764
826.809	29.708
826.834	29.741
826.860	29.661
826.885	29.759
826.911	29.680
826.936	29.717
826.962	29.685
826.987	29.773
827.012	29.699
827.038	29.750
827.063	29.717
827.089	29.708
827.114	29.694
827.139	29.759
827.165	29.800
827.190	29.759
827.216	29.731
827.241	29.694
827.266	29.713
827.292	29.699
827.317	29.759
827.342	29.717
827.368	29.782
827.393	29.745
827.418	29.717
827.444	29.754
827.469	29.773
827.495	29.694
827.520	29.731
827.545	29.731
827.570	29.722
827.596	29.703
827.621	29.722
827.646	29.741
827.672	29.694
827.697	29.814
827.722	29.754
827.748	29.727
827.773	29.741
827.798	29.713
827.824	29.814
827.849	29.759
827.874	29.777
827.900	29.786
827.925	29.675
827.950	29.657
827.975	29.689
828.001	29.694
828.026	29.782
828.051	29.777
828.077	29.881
828.102	29.736
828.127	29.809
828.152	29.661
828.178	29.689
828.203	29.694
828.228	29.722
828.253	29.708
828.279	29.731
828.304	29.759
828.329	29.741
828.354	29.800
828.380	29.727
828.405	29.694
828.430	29.754
828.455	29.685
828.480	29.727
828.506	29.786
828.531	29.786
828.556	29.800
828.581	29.759
828.606	29.717
828.632	29.699
828.657	29.736
828.682	29.823
828.707	29.671
828.732	29.675
828.758	29.694
828.783	29.694
828.808	29.814
828.833	29.814
828.858	29.773
828.883	29.741
828.909	29.731
828.934	29.750
828.959	29.685
828.984	29.768
829.009	29.689
829.034	29.694
829.060	29.768
829.085	29.786
829.110	29.759
829.135	29.680
829.160	29.727
829.185	29.768
829.210	29.694
829.235	29.795
829.261	29.694
829.286	29.782
829.311	29.717
829.336	29.628
829.361	29.777
829.386	29.805
829.411	29.759
829.436	29.741
829.461	29.722
829.487	29.661
829.512	29.727
829.537	29.786
829.562	29.731
829.587	29.754
829.612	29.713
829.637	29.717
829.662	29.764
829.687	29.694
829.712	29.750
829.737	29.741
829.762	29.750
829.787	29.685
829.812	29.754
829.837	29.671
829.862	29.827
829.888	29.754
829.913	29.694
829.938	29.671
829.963	29.736
829.988	29.685
830.013	29.731
830.038	29.666
830.063	29.727
830.088	29.717
830.113	29.727
830.138	29.782
830.163	29.764
830.188	29.722
830.213	29.708
830.238	29.717
830.263	29.727
830.288	29.694
830.313	29.708
830.338	29.782
830.363	29.759
830.388	29.750
830.413	29.727
830.438	29.782
830.462	29.750
830.487	29.768
830.512	29.773
830.537	29.805
830.562	29.791
830.587	29.782
830.612	29.800
830.637	29.713
830.662	29.773
830.687	29.745
830.712	29.731
830.737	29.713
830.762	29.675
830.787	29.736
830.812	29.694
830.836	29.750
830.861	29.699
830.886	29.731
830.911	29.689
830.936	29.671
830.961	29.713
830.986	29.759
831.011	29.754
831.036	29.745
831.061	29.703
831.085	29.750
831.110	29.694
831.135	29.675
831.160	29.731
831.185	29.703
831.210	29.638
831.235	29.727
831.260	29.754
831.284	29.675
831.309	29.741
831.334	29.722
831.359	29.736
831.384	29.652
831.409	29.750
831.433	29.768
831.458	29.671
831.483	29.754
831.508	29.764
831.533	29.633
831.558	29.713
831.582	29.741
831.607	29.722
831.632	29.750
831.657	29.680
831.682	29.685
831.706	29.736
831.731	29.694
831.756	29.741
831.781	29.754
831.806	29.759
831.830	29.675
831.855	29.703
831.880	29.754
831.905	29.731
831.929	29.731
831.954	29.689
831.979	29.795
832.004	29.703
832.028	29.703
832.053	29.666
832.078	29.764
832.103	29.722
832.127	29.791
832.152	29.745
832.177	29.689
832.202	29.722
832.226	29.736
832.251	29.699
832.276	29.680
832.301	29.768
832.325	29.685
832.350	29.727
832.375	29.713
832.399	29.713
832.424	29.754
832.449	29.713
832.474	29.777
832.498	29.713
832.523	29.661
832.548	29.671
832.572	29.722
832.597	29.745
832.622	29.694
832.646	29.717
832.671	29.731
832.696	29.671
832.720	29.782
832.745	29.727
832.770	29.791
832.794	29.777
832.819	29.736
832.844	29.750
832.868	29.768
832.893	29.661
832.918	29.703
832.942	29.703
832.967	29.727
832.991	29.703
833.016	29.685
833.041	29.680
833.065	29.713
