Wavelength (nm)	Rel. spec. intensity (dB)
848.649	29.727
848.672	29.768
848.694	29.827
848.717	29.836
848.739	29.777
848.761	29.773
848.784	29.741
848.806	29.764
848.829	29.777
848.851	29.727
848.874	29.731
848.896	29.777
848.919	29.754
848.941	29.727
848.963	29.741
848.986	29.703
849.008	29.689
849.031	29.764
849.053	29.685
849.075	29.731
849.098	29.764
849.120	29.791
849.143	29.754
849.165	29.722
849.187	29.736
849.210	29.750
849.232	29.827
849.254	29.773
849.277	29.736
849.299	29.717
849.322	29.791
849.344	29.805
849.366	29.741
849.389	29.722
849.411	29.745
849.433	29.717
849.456	29.791
849.478	29.750
849.500	29.786
849.523	29.809
849.545	29.689
849.567	29.633
849.590	29.731
849.612	29.754
849.634	29.722
849.657	29.722
849.679	29.754
849.701	29.759
849.724	29.800
849.746	29.675
849.768	29.731
849.791	29.805
849.813	29.773
849.835	29.736
849.857	29.764
849.880	29.773
849.902	29.722
849.924	29.689
849.946	29.727
849.969	29.703
849.991	29.759
850.013	29.643
850.036	29.727
850.058	29.764
850.080	29.791
850.102	29.754
850.125	29.708
850.147	29.731
850.169	29.791
850.191	29.750
850.214	29.809
850.236	29.628
850.258	29.800
850.280	29.699
850.302	29.666
850.325	29.759
850.347	29.805
850.369	29.657
850.391	29.759
850.414	29.773
850.436	29.713
850.458	29.708
850.480	29.666
850.502	29.768
850.524	29.800
850.547	29.717
850.569	29.782
850.591	29.633
850.613	29.661
850.635	29.759
850.658	29.731
850.680	29.722
850.702	29.754
850.724	29.768
850.746	29.675
850.768	29.745
850.791	29.759
850.813	29.809
850.835	29.800
850.857	29.768
850.879	29.764
850.901	29.694
850.923	29.727
850.945	29.713
850.968	29.805
850.990	29.791
851.012	29.741
851.034	29.786
851.056	29.809
851.078	29.713
851.100	29.786
851.122	29.750
851.144	29.699
851.167	29.689
851.189	29.731
851.211	29.741
851.233	29.754
851.255	29.745
851.277	29.832
851.299	29.745
851.321	29.703
851.343	29.666
851.365	29.731
851.387	29.750
851.409	29.609
851.431	29.652
851.453	29.754
851.476	29.754
851.498	29.661
851.520	29.754
851.542	29.741
851.564	29.694
851.586	29.741
851.608	29.823
851.630	29.777
851.652	29.689
851.674	29.759
851.696	29.694
851.718	29.694
851.740	29.703
851.762	29.773
851.784	29.736
851.806	29.754
851.828	29.717
851.850	29.805
851.872	29.750
851.894	29.764
851.916	29.800
851.938	29.754
851.960	29.731
851.982	29.759
852.004	29.773
852.026	29.768
852.048	29.782
852.070	29.805
852.092	29.759
852.114	29.727
852.135	29.786
852.157	29.717
852.179	29.764
852.201	29.759
852.223	29.754
852.245	29.713
852.267	29.773
852.289	29.722
852.311	29.750
852.333	29.727
852.355	29.764
852.377	29.717
852.399	29.727
852.421	29.768
852.442	29.759
852.464	29.777
852.486	29.777
852.508	29.786
852.530	29.661
852.552	29.832
852.574	29.727
852.596	29.699
852.618	29.731
852.639	29.699
852.661	29.731
852.683	29.759
852.705	29.731
852.727	29.764
852.749	29.786
852.771	29.680
852.792	29.717
852.814	29.666
852.836	29.657
852.858	29.827
852.880	29.759
852.902	29.717
852.924	29.703
852.945	29.750
852.967	29.699
852.989	29.795
853.011	29.814
853.033	29.768
853.055	29.764
853.076	29.764
853.098	29.713
853.120	29.703
853.142	29.736
853.164	29.777
853.185	29.777
853.207	29.805
853.229	29.759
853.251	29.791
853.272	29.814
853.294	29.699
853.316	29.722
853.338	29.750
853.360	29.809
853.381	29.754
853.403	29.736
853.425	29.745
853.447	29.759
853.468	29.741
853.490	29.773
853.512	29.764
853.534	30.120
853.555	30.990
853.577	32.071
853.599	33.341
853.620	34.551
853.642	35.368
853.664	35.305
853.686	34.401
853.707	33.402
853.729	32.201
853.751	30.931
853.773	30.166
853.794	29.877
853.816	29.823
853.838	29.809
853.859	29.854
853.881	29.736
853.903	29.818
853.924	29.722
853.946	29.841
853.968	29.741
853.989	29.823
854.011	29.754
854.033	29.666
854.054	29.736
854.076	29.703
854.098	29.745
854.119	29.727
854.141	29.814
854.163	29.809
854.184	29.868
854.206	29.759
854.228	29.703
854.249	29.773
854.271	29.791
854.292	29.647
854.314	29.717
854.336	29.759
854.357	29.731
854.379	29.694
854.401	29.708
854.422	29.791
854.444	29.731
854.465	29.750
854.487	29.703
854.509	29.727
854.530	29.736
854.552	29.680
854.573	29.647
854.595	29.754
854.617	29.722
854.638	29.754
854.660	29.685
854.681	29.717
854.703	29.759
854.724	29.768
854.746	29.754
854.767	29.809
854.789	29.777
854.811	29.713
854.832	29.741
854.854	29.759
854.875	29.754
854.897	29.727
854.918	29.685
854.940	29.666
854.961	29.717
854.983	29.675
855.004	29.750
855.026	29.754
855.047	29.741
855.069	29.782
855.090	29.768
855.112	29.680
855.133	29.713
855.155	29.703
855.176	29.764
855.198	29.699
855.219	29.657
855.241	29.768
855.262	29.713
855.284	29.791
855.305	29.750
855.327	29.741
855.348	29.680
855.370	29.703
855.391	29.745
855.413	29.741
855.434	29.699
855.456	29.777
855.477	29.741
855.498	29.708
855.520	29.708
855.541	29.791
855.563	29.703
855.584	29.689
855.606	29.708
855.627	29.675
855.648	29.773
855.670	29.827
855.691	29.795
855.713	29.795
855.734	29.764
855.755	29.703
855.777	29.727
855.798	29.764
855.820	29.694
855.841	29.727
855.862	29.717
855.884	29.699
855.905	29.699
855.927	29.731
855.948	29.661
855.969	29.671
855.991	29.717
856.012	29.722
856.033	29.708
856.055	29.717
856.076	29.745
856.098	29.809
856.119	29.750
856.140	29.759
856.162	29.713
856.183	29.786
856.204	29.708
856.226	29.727
856.247	29.754
856.268	29.823
856.290	29.777
856.311	29.745
856.332	29.827
856.354	29.786
856.375	29.768
856.396	29.689
856.417	29.754
856.439	29.773
856.460	29.713
856.481	29.741
856.503	29.671
856.524	29.773
856.545	29.727
856.566	29.791
856.588	29.736
856.609	29.777
856.630	29.741
856.652	29.717
856.673	29.745
856.694	29.736
856.715	29.731
856.737	29.727
856.758	29.727
856.779	29.800
856.800	29.741
856.822	29.722
856.843	29.754
856.864	29.731
856.885	29.699
856.907	29.750
856.928	29.689
856.949	29.731
856.970	29.675
856.991	29.782
857.013	29.773
857.034	29.782
857.055	29.782
857.076	29.777
857.097	29.680
857.119	29.703
857.140	29.741
857.161	29.759
857.182	29.694
857.203	29.666
857.225	29.777
857.246	29.791
857.267	29.759
857.288	29.805
857.309	29.713
857.330	29.754
857.352	29.717
857.373	29.791
857.394	29.845
857.415	29.773
857.436	29.795
857.457	29.773
857.479	29.722
857.500	29.759
857.521	29.795
857.542	29.845
857.563	29.754
857.584	29.768
857.605	29.675
857.626	29.722
857.648	29.773
857.669	29.777
857.690	29.773
857.711	29.717
857.732	29.791
857.753	29.823
857.774	29.731
857.795	29.745
857.816	29.754
857.837	29.754
857.859	29.731
857.880	29.643
857.901	29.685
857.922	29.800
857.943	29.768
857.964	29.745
857.985	29.745
858.006	29.791
858.027	29.722
858.048	29.647
858.069	29.628
858.090	29.689
858.111	29.680
858.132	29.717
858.153	29.750
858.174	29.777
858.195	29.768
858.216	29.814
858.237	29.754
858.258	29.773
858.279	29.708
858.300	29.703
858.321	29.795
858.342	29.741
858.363	29.675
858.384	29.717
858.406	29.680
858.426	29.777
858.447	29.685
858.468	29.768
858.489	29.703
858.510	29.722
858.531	29.713
858.552	29.741
858.573	29.773
858.594	29.768
858.615	29.768
858.636	29.713
