Wavelength (nm)	Rel. spec. intensity (dB)
846.569	29.805
846.592	29.863
846.614	29.836
846.637	29.859
846.660	29.800
846.683	29.805
846.705	29.818
846.728	29.903
846.751	29.926
846.774	29.877
846.796	29.845
846.819	29.859
846.842	29.823
846.865	29.841
846.887	29.854
846.910	29.845
846.933	29.836
846.955	29.872
846.978	29.863
847.001	29.881
847.023	29.827
847.046	29.868
847.069	29.823
847.092	29.859
847.114	29.800
847.137	29.832
847.160	29.777
847.182	29.859
847.205	29.731
847.228	29.731
847.250	29.795
847.273	29.854
847.296	29.863
847.318	29.854
847.341	29.854
847.364	29.818
847.386	29.791
847.409	29.791
847.432	29.841
847.454	29.777
847.477	29.814
847.499	29.877
847.522	29.845
847.545	29.818
847.567	29.881
847.590	29.823
847.613	29.841
847.635	29.859
847.658	29.872
847.680	29.868
847.703	29.841
847.726	29.782
847.748	29.809
847.771	29.786
847.793	29.863
847.816	29.863
847.839	29.872
847.861	29.791
847.884	29.841
847.906	29.836
847.929	29.841
847.951	29.881
847.974	29.841
847.996	29.868
848.019	29.881
848.042	29.836
848.064	29.894
848.087	29.827
848.109	29.809
848.132	29.805
848.154	29.809
848.177	29.827
848.199	29.845
848.222	29.859
848.244	29.850
848.267	29.859
848.289	29.827
848.312	29.809
848.334	29.759
848.357	29.809
848.379	29.791
848.402	29.845
848.424	29.841
848.447	29.805
848.469	29.894
848.492	29.845
848.514	29.836
848.537	29.764
848.559	29.836
848.582	29.859
848.604	29.854
848.627	29.773
848.649	29.800
848.672	29.827
848.694	29.836
848.717	29.841
848.739	29.850
848.761	29.836
848.784	29.872
848.806	29.845
848.829	29.832
848.851	29.845
848.874	29.795
848.896	29.809
848.919	29.845
848.941	29.814
848.963	29.872
848.986	29.917
849.008	29.827
849.031	29.759
849.053	29.809
849.075	29.777
849.098	29.841
849.120	29.845
849.143	29.872
849.165	29.841
849.187	29.890
849.210	29.845
849.232	29.894
849.254	29.859
849.277	29.877
849.299	29.805
849.322	29.859
849.344	29.809
849.366	29.917
849.389	29.809
849.411	29.800
849.433	29.863
849.456	29.768
849.478	29.791
849.500	29.859
849.523	29.836
849.545	29.899
849.567	29.881
849.590	29.827
849.612	29.845
849.634	29.863
849.657	29.786
849.679	29.845
849.701	29.836
849.724	29.854
849.746	29.872
849.768	29.863
849.791	29.886
849.813	29.832
849.835	29.854
849.857	29.877
849.880	29.795
849.902	29.886
849.924	29.881
849.946	29.745
849.969	29.850
849.991	29.814
850.013	29.877
850.036	29.818
850.058	29.854
850.080	29.832
850.102	29.832
850.125	29.809
850.147	29.868
850.169	29.845
850.191	29.868
850.214	29.863
850.236	29.845
850.258	29.926
850.280	29.926
850.302	30.512
850.325	31.620
850.347	32.653
850.369	33.735
850.391	34.320
850.414	34.513
850.436	34.860
850.458	34.975
850.480	34.434
850.502	32.819
850.524	31.072
850.547	30.175
850.569	29.939
850.591	29.894
850.613	29.827
850.635	29.823
850.658	29.868
850.680	29.836
850.702	29.777
850.724	29.872
850.746	29.890
850.768	29.877
850.791	29.841
850.813	29.818
850.835	29.877
850.857	29.908
850.879	29.854
850.901	29.795
850.923	29.868
850.945	29.827
850.968	29.823
850.990	29.868
851.012	29.903
851.034	29.827
851.056	29.881
851.078	29.827
851.100	29.786
851.122	29.854
851.144	29.850
851.167	29.845
851.189	29.845
851.211	29.877
851.233	29.773
851.255	29.823
851.277	29.764
851.299	29.768
851.321	29.827
851.343	29.926
851.365	29.908
851.387	29.877
851.409	29.809
851.431	30.124
851.453	31.538
851.476	32.967
851.498	34.387
851.520	35.737
851.542	37.183
851.564	37.643
851.586	36.224
851.608	34.595
851.630	33.032
851.652	31.052
851.674	30.212
851.696	30.004
851.718	29.841
851.740	29.859
851.762	29.974
851.784	29.930
851.806	29.943
851.828	29.890
851.850	29.930
851.872	29.872
851.894	29.868
851.916	29.886
851.938	29.868
851.960	29.868
851.982	29.926
852.004	29.917
852.026	29.823
852.048	29.939
852.070	29.886
852.092	29.845
852.114	29.886
852.135	29.832
852.157	29.800
852.179	29.791
852.201	29.814
852.223	29.818
852.245	29.863
852.267	29.863
852.289	29.926
852.311	29.969
852.333	29.912
852.355	29.832
852.377	29.917
852.399	29.841
852.421	29.854
852.442	29.832
852.464	29.877
852.486	29.886
852.508	29.823
852.530	29.863
852.552	29.877
852.574	29.713
852.596	29.859
852.618	29.917
852.639	29.917
852.661	29.881
852.683	29.872
852.705	29.764
852.727	29.845
852.749	29.872
852.771	29.868
852.792	29.814
852.814	29.868
852.836	29.841
852.858	29.854
852.880	29.881
852.902	29.881
852.924	29.863
852.945	29.917
852.967	29.886
852.989	29.903
853.011	29.912
853.033	29.731
853.055	29.786
853.076	29.877
853.098	29.827
853.120	29.899
853.142	29.877
853.164	29.805
853.185	29.886
853.207	29.841
853.229	29.868
853.251	29.859
853.272	29.759
853.294	29.854
853.316	29.841
853.338	29.854
853.360	29.795
853.381	29.832
853.403	29.805
853.425	29.818
853.447	29.841
853.468	29.850
853.490	29.795
853.512	29.782
853.534	29.854
853.555	29.836
853.577	29.827
853.599	29.841
853.620	29.841
853.642	29.809
853.664	29.841
853.686	29.965
853.707	29.823
853.729	29.863
853.751	29.854
853.773	29.877
853.794	29.912
853.816	29.899
853.838	29.850
853.859	29.832
853.881	29.872
853.903	29.791
853.924	29.814
853.946	29.881
853.968	29.854
853.989	29.859
854.011	29.859
854.033	29.832
854.054	29.786
854.076	29.827
854.098	29.832
854.119	29.809
854.141	29.805
854.163	29.795
854.184	29.795
854.206	29.899
854.228	29.850
854.249	29.850
854.271	29.886
854.292	29.836
854.314	29.886
854.336	29.877
854.357	29.768
854.379	29.823
854.401	29.912
854.422	29.841
854.444	29.877
854.465	29.827
854.487	29.868
854.509	29.827
854.530	29.823
854.552	29.814
854.573	29.836
854.595	29.777
854.617	29.850
854.638	29.890
854.660	29.805
854.681	29.764
854.703	29.827
854.724	29.836
854.746	29.863
854.767	29.814
854.789	29.836
854.811	29.899
854.832	29.773
854.854	29.868
854.875	29.809
854.897	29.845
854.918	29.818
854.940	29.868
854.961	29.845
854.983	29.854
855.004	29.845
855.026	29.886
855.047	29.841
855.069	29.845
855.090	29.827
855.112	29.823
855.133	29.786
855.155	29.768
855.176	29.795
855.198	29.832
855.219	29.836
855.241	29.868
855.262	29.868
855.284	29.827
855.305	29.859
855.327	29.782
855.348	29.832
855.370	29.827
855.391	29.863
855.413	29.872
855.434	29.872
855.456	29.863
855.477	29.827
855.498	29.872
855.520	29.854
855.541	29.859
855.563	29.823
855.584	29.814
855.606	29.863
855.627	29.859
855.648	29.832
855.670	29.786
855.691	29.818
855.713	29.841
855.734	29.841
855.755	29.903
855.777	29.836
855.798	29.859
855.820	29.805
855.841	29.809
855.862	29.809
855.884	29.773
855.905	29.814
855.927	29.845
855.948	29.809
855.969	29.814
855.991	29.823
856.012	29.836
856.033	29.795
856.055	29.773
856.076	29.854
856.098	29.827
856.119	29.908
856.140	29.890
856.162	29.859
856.183	29.818
856.204	29.845
856.226	29.886
856.247	29.823
856.268	29.868
856.290	29.818
856.311	29.791
856.332	29.845
856.354	29.872
856.375	29.805
856.396	29.827
856.417	29.845
856.439	29.836
856.460	29.859
856.481	29.854
856.503	29.926
856.524	29.863
856.545	29.841
