Wavelength (nm)	Rel. spec. intensity (dB)
850.391	29.736
850.414	29.731
850.436	29.745
850.458	29.713
850.480	29.741
850.502	29.722
850.524	29.647
850.547	29.727
850.569	29.782
850.591	29.805
850.613	29.689
850.635	29.671
850.658	29.731
850.680	29.754
850.702	29.791
850.724	29.768
850.746	29.764
850.768	29.699
850.791	29.731
850.813	29.675
850.835	29.750
850.857	29.750
850.879	29.736
850.901	29.759
850.923	29.759
850.945	29.727
850.968	29.754
850.990	29.777
851.012	29.750
851.034	29.800
851.056	29.773
851.078	29.745
851.100	29.786
851.122	29.727
851.144	29.703
851.167	29.671
851.189	29.791
851.211	29.736
851.233	29.717
851.255	29.768
851.277	29.777
851.299	29.713
851.321	29.805
851.343	29.845
851.365	29.694
851.387	29.791
851.409	29.786
851.431	29.777
851.453	29.703
851.476	29.713
851.498	29.791
851.520	29.731
851.542	29.754
851.564	29.786
851.586	29.754
851.608	29.754
851.630	29.759
851.652	29.736
851.674	29.782
851.696	29.736
851.718	29.699
851.740	29.713
851.762	29.814
851.784	29.791
851.806	29.689
851.828	29.809
851.850	29.768
851.872	29.759
851.894	29.741
851.916	29.750
851.938	29.768
851.960	29.708
851.982	29.736
852.004	29.773
852.026	29.814
852.048	29.680
852.070	29.671
852.092	29.717
852.114	29.694
852.135	29.777
852.157	29.759
852.179	29.854
852.201	29.685
852.223	29.750
852.245	29.694
852.267	29.764
852.289	29.722
852.311	29.782
852.333	29.750
852.355	29.699
852.377	29.745
852.399	29.745
852.421	29.675
852.442	29.685
852.464	29.652
852.486	29.764
852.508	29.731
852.530	29.671
852.552	29.703
852.574	29.713
852.596	29.722
852.618	29.717
852.639	29.699
852.661	29.731
852.683	29.786
852.705	29.759
852.727	29.680
852.749	29.727
852.771	29.689
852.792	29.731
852.814	29.713
852.836	29.699
852.858	29.736
852.880	29.773
852.902	29.717
852.924	29.717
852.945	29.832
852.967	29.717
852.989	29.809
853.011	29.671
853.033	29.736
853.055	29.777
853.076	29.836
853.098	29.713
853.120	29.809
853.142	29.741
853.164	29.727
853.185	29.731
853.207	29.741
853.229	29.795
853.251	29.722
853.272	29.671
853.294	29.727
853.316	29.768
853.338	29.657
853.360	29.741
853.381	29.722
853.403	29.675
853.425	29.759
853.447	29.777
853.468	29.694
853.490	29.791
853.512	29.764
853.534	29.745
853.555	29.731
853.577	29.736
853.599	29.727
853.620	29.745
853.642	29.754
853.664	29.736
853.686	29.795
853.707	29.754
853.729	29.722
853.751	29.727
853.773	29.764
853.794	29.777
853.816	29.731
853.838	29.741
853.859	29.791
853.881	29.795
853.903	29.699
853.924	29.741
853.946	29.754
853.968	29.786
853.989	29.800
854.011	29.736
854.033	29.791
854.054	29.666
854.076	29.782
854.098	29.800
854.119	29.750
854.141	29.750
854.163	29.680
854.184	29.736
854.206	29.741
854.228	29.754
854.249	29.717
854.271	29.745
854.292	29.754
854.314	29.764
854.336	29.786
854.357	29.768
854.379	29.703
854.401	29.722
854.422	29.708
854.444	29.694
854.465	29.708
854.487	29.741
854.509	29.685
854.530	29.694
854.552	29.795
854.573	29.773
854.595	29.773
854.617	29.759
854.638	29.741
854.660	29.727
854.681	29.750
854.703	29.708
854.724	29.717
854.746	29.722
854.767	29.754
854.789	29.703
854.811	29.661
854.832	29.736
854.854	29.708
854.875	29.661
854.897	29.717
854.918	29.708
854.940	29.708
854.961	29.777
854.983	29.777
855.004	29.736
855.026	29.754
855.047	29.818
855.069	29.722
855.090	29.736
855.112	29.768
855.133	29.768
855.155	29.717
855.176	29.647
855.198	29.731
855.219	29.805
855.241	29.850
855.262	30.204
855.284	30.788
855.305	31.587
855.327	32.723
855.348	33.707
855.370	34.385
855.391	34.415
855.413	33.677
855.434	32.704
855.456	31.402
855.477	30.434
855.498	29.996
855.520	29.805
855.541	29.814
855.563	29.768
855.584	29.773
855.606	29.827
855.627	29.764
855.648	29.764
855.670	29.836
855.691	29.836
855.713	29.854
855.734	29.773
855.755	29.713
855.777	29.750
855.798	29.759
855.820	29.750
855.841	29.759
855.862	29.671
855.884	29.713
855.905	29.754
855.927	29.754
855.948	29.836
855.969	29.722
855.991	29.814
856.012	29.845
856.033	29.750
856.055	29.750
856.076	29.685
856.098	29.759
856.119	29.791
856.140	29.823
856.162	29.741
856.183	29.699
856.204	29.722
856.226	29.759
856.247	29.703
856.268	29.754
856.290	29.717
856.311	29.764
856.332	29.773
856.354	29.689
856.375	29.675
856.396	29.652
856.417	29.699
856.439	29.689
856.460	29.768
856.481	29.773
856.503	29.786
856.524	29.754
856.545	29.759
856.566	29.786
856.588	29.736
856.609	29.827
856.630	29.722
856.652	29.703
856.673	29.671
856.694	29.764
856.715	29.727
856.737	29.736
856.758	29.795
856.779	29.727
856.800	29.689
856.822	29.731
856.843	29.722
856.864	29.854
856.885	29.717
856.907	29.759
856.928	29.703
856.949	29.777
856.970	29.764
856.991	29.666
857.013	29.731
857.034	29.731
857.055	29.759
857.076	29.777
857.097	29.708
857.119	29.713
857.140	29.754
857.161	29.777
857.182	29.795
857.203	29.685
857.225	29.741
857.246	29.818
857.267	29.764
857.288	29.741
857.309	29.754
857.330	29.773
857.352	29.708
857.373	29.791
857.394	29.773
857.415	29.722
857.436	29.675
857.457	29.791
857.479	29.703
857.500	29.727
857.521	29.717
857.542	29.764
857.563	29.741
857.584	29.731
857.605	29.666
857.626	29.754
857.648	29.722
857.669	29.731
857.690	29.727
857.711	29.795
857.732	29.773
857.753	29.768
857.774	29.717
857.795	29.685
857.816	29.713
857.837	29.666
857.859	29.689
857.880	29.754
857.901	29.777
857.922	29.745
857.943	29.764
857.964	29.736
857.985	29.717
858.006	29.805
858.027	29.759
858.048	29.703
858.069	29.741
858.090	29.782
858.111	29.741
858.132	29.754
858.153	29.773
858.174	29.786
858.195	29.731
858.216	29.791
858.237	29.671
858.258	29.754
858.279	29.708
858.300	29.764
858.321	29.708
858.342	29.754
858.363	29.764
858.384	29.795
858.406	29.750
858.426	29.675
858.447	29.717
858.468	29.814
858.489	29.699
858.510	29.786
858.531	29.717
858.552	29.782
858.573	29.703
858.594	29.836
858.615	29.759
858.636	29.741
858.657	29.795
858.678	29.727
858.699	29.768
858.720	29.782
858.741	29.680
858.762	29.685
858.783	29.754
858.804	29.657
858.825	29.809
858.846	29.750
858.867	29.750
858.888	29.722
858.908	29.731
858.929	29.777
858.950	29.731
858.971	29.759
858.992	29.699
859.013	29.750
859.034	29.736
859.055	29.745
859.076	29.680
859.097	29.805
859.117	29.786
859.138	29.800
859.159	29.768
859.180	29.731
859.201	29.731
859.222	29.845
859.243	29.736
859.264	29.777
859.284	29.713
859.305	29.717
859.326	29.786
859.347	29.777
859.368	29.731
859.389	29.764
859.410	29.722
859.430	29.754
859.451	29.699
859.472	29.643
859.493	29.638
859.514	29.727
859.534	29.717
859.555	29.652
859.576	29.694
859.597	29.666
859.618	29.694
859.639	29.731
859.659	29.713
859.680	29.795
859.701	29.713
859.722	29.741
859.742	29.736
859.763	29.786
859.784	29.722
859.805	29.731
859.826	29.736
859.846	29.713
859.867	29.703
859.888	29.675
859.909	29.786
859.929	29.736
859.950	29.717
859.971	29.823
859.992	29.666
860.012	29.773
860.033	29.731
860.054	29.731
860.075	29.814
860.095	29.764
860.116	29.671
860.137	29.759
860.158	29.750
860.178	29.786
860.199	29.722
860.220	29.782
860.240	29.750
860.261	29.768
860.282	29.703
860.303	29.754
860.323	29.727
860.344	29.727
860.365	29.717
860.385	29.805
