Wavelength (nm)	Rel. spec. intensity (dB)
849.634	29.741
849.657	29.713
849.679	29.722
849.701	29.703
849.724	29.764
849.746	29.713
849.768	29.768
849.791	29.791
849.813	29.745
849.835	29.750
849.857	29.754
849.880	29.777
849.902	29.773
849.924	29.694
849.946	29.750
849.969	29.836
849.991	29.777
850.013	29.759
850.036	29.768
850.058	29.805
850.080	29.773
850.102	29.722
850.125	29.713
850.147	29.666
850.169	29.805
850.191	29.759
850.214	29.814
850.236	29.764
850.258	29.795
850.280	29.750
850.302	29.777
850.325	29.850
850.347	29.791
850.369	29.795
850.391	29.773
850.414	29.805
850.436	29.754
850.458	29.768
850.480	29.764
850.502	29.814
850.524	29.717
850.547	29.717
850.569	29.754
850.591	29.759
850.613	29.750
850.635	29.777
850.658	29.759
850.680	29.795
850.702	29.773
850.724	29.750
850.746	29.773
850.768	29.759
850.791	29.786
850.813	29.717
850.835	29.764
850.857	29.727
850.879	29.750
850.901	29.800
850.923	29.759
850.945	29.850
850.968	29.818
850.990	29.773
851.012	29.773
851.034	29.800
851.056	29.854
851.078	29.845
851.100	29.872
851.122	29.731
851.144	29.764
851.167	29.699
851.189	29.750
851.211	29.777
851.233	29.782
851.255	29.786
851.277	29.736
851.299	29.754
851.321	29.731
851.343	29.773
851.365	29.850
851.387	29.872
851.409	29.823
851.431	29.782
851.453	29.699
851.476	29.759
851.498	29.773
851.520	29.759
851.542	29.773
851.564	29.731
851.586	29.722
851.608	29.754
851.630	29.827
851.652	29.773
851.674	29.805
851.696	29.782
851.718	29.731
851.740	29.736
851.762	29.759
851.784	29.791
851.806	29.809
851.828	29.736
851.850	29.764
851.872	29.708
851.894	29.773
851.916	29.754
851.938	29.759
851.960	29.791
851.982	29.832
852.004	29.795
852.026	29.827
852.048	29.777
852.070	29.759
852.092	29.863
852.114	29.805
852.135	29.827
852.157	29.754
852.179	29.731
852.201	29.731
852.223	29.708
852.245	29.736
852.267	29.745
852.289	29.741
852.311	29.786
852.333	29.741
852.355	29.708
852.377	29.731
852.399	29.741
852.421	29.800
852.442	29.759
852.464	29.764
852.486	29.768
852.508	29.745
852.530	29.741
852.552	29.827
852.574	29.818
852.596	29.777
852.618	29.754
852.639	29.850
852.661	29.827
852.683	29.782
852.705	29.759
852.727	29.754
852.749	29.685
852.771	29.680
852.792	29.786
852.814	29.764
852.836	29.782
852.858	29.754
852.880	29.713
852.902	29.777
852.924	29.782
852.945	29.809
852.967	29.814
852.989	29.786
853.011	29.685
853.033	29.791
853.055	29.768
853.076	29.727
853.098	29.791
853.120	29.800
853.142	29.795
853.164	29.768
853.185	29.745
853.207	29.722
853.229	29.841
853.251	29.727
853.272	29.782
853.294	29.731
853.316	29.814
853.338	29.764
853.360	29.768
853.381	29.754
853.403	29.754
853.425	29.782
853.447	29.727
853.468	29.786
853.490	29.809
853.512	29.773
853.534	29.745
853.555	29.854
853.577	29.768
853.599	29.777
853.620	29.754
853.642	29.800
853.664	29.800
853.686	29.736
853.707	29.685
853.729	29.805
853.751	29.745
853.773	29.727
853.794	29.703
853.816	29.666
853.838	29.773
853.859	29.795
853.881	29.773
853.903	29.795
853.924	29.736
853.946	29.791
853.968	29.841
853.989	29.818
854.011	29.750
854.033	29.800
854.054	29.809
854.076	29.800
854.098	29.722
854.119	29.731
854.141	29.741
854.163	29.754
854.184	29.745
854.206	29.782
854.228	29.722
854.249	29.777
854.271	29.786
854.292	29.823
854.314	29.809
854.336	29.805
854.357	29.759
854.379	29.727
854.401	29.754
854.422	29.764
854.444	29.768
854.465	29.872
854.487	29.872
854.509	30.398
854.530	31.219
854.552	32.315
854.573	33.280
854.595	34.223
854.617	34.565
854.638	33.981
854.660	32.826
854.681	31.370
854.703	30.265
854.724	29.952
854.746	29.777
854.767	29.832
854.789	29.863
854.811	29.805
854.832	29.845
854.854	29.872
854.875	29.854
854.897	29.818
854.918	29.863
854.940	29.800
854.961	29.768
854.983	29.736
855.004	29.814
855.026	29.832
855.047	29.832
855.069	29.908
855.090	29.903
855.112	29.836
855.133	29.731
855.155	29.777
855.176	29.713
855.198	29.754
855.219	29.759
855.241	29.717
855.262	29.786
855.284	29.832
855.305	29.722
855.327	29.823
855.348	29.814
855.370	29.741
855.391	29.845
855.413	29.786
855.434	29.814
855.456	29.731
855.477	29.722
855.498	29.773
855.520	29.791
855.541	29.708
855.563	29.764
855.584	29.827
855.606	29.768
855.627	29.832
855.648	29.809
855.670	29.795
855.691	29.745
855.713	29.764
855.734	29.759
855.755	29.795
855.777	29.800
855.798	29.827
855.820	29.731
855.841	29.689
855.862	29.731
855.884	29.708
855.905	29.768
855.927	29.750
855.948	29.827
855.969	29.827
855.991	29.750
856.012	29.845
856.033	29.773
856.055	29.782
856.076	29.800
856.098	29.795
856.119	29.791
856.140	29.832
856.162	29.713
856.183	29.727
856.204	29.768
856.226	29.773
856.247	29.809
856.268	29.717
856.290	29.694
856.311	29.782
856.332	29.823
856.354	29.818
856.375	29.791
856.396	29.754
856.417	29.786
856.439	29.736
856.460	29.680
856.481	29.731
856.503	29.786
856.524	29.731
856.545	29.671
856.566	29.782
856.588	29.764
856.609	29.823
856.630	29.786
856.652	29.786
856.673	29.800
856.694	29.773
856.715	29.764
856.737	29.717
856.758	29.759
856.779	29.713
856.800	29.800
856.822	29.786
856.843	29.805
856.864	29.809
856.885	29.863
856.907	29.850
856.928	29.713
856.949	29.661
856.970	29.731
856.991	29.773
857.013	29.759
857.034	29.713
857.055	29.680
857.076	29.791
857.097	29.754
857.119	29.845
857.140	29.818
857.161	29.741
857.182	29.741
857.203	29.827
857.225	29.800
857.246	29.736
857.267	29.814
857.288	29.777
857.309	29.800
857.330	29.777
857.352	29.745
857.373	29.791
857.394	29.777
857.415	29.782
857.436	29.736
857.457	29.671
857.479	29.685
857.500	29.708
857.521	29.754
857.542	29.841
857.563	29.782
857.584	29.777
857.605	29.727
857.626	29.786
857.648	29.741
857.669	29.759
857.690	29.786
857.711	29.791
857.732	29.759
857.753	29.814
857.774	29.727
857.795	29.703
857.816	29.759
857.837	29.827
857.859	29.886
857.880	29.764
857.901	29.750
857.922	29.754
857.943	29.680
857.964	29.703
857.985	29.795
858.006	29.745
858.027	29.713
858.048	29.750
858.069	29.750
858.090	29.764
858.111	29.759
858.132	29.777
858.153	29.768
858.174	29.786
858.195	29.773
858.216	29.731
858.237	29.827
858.258	29.759
858.279	29.741
858.300	29.809
858.321	29.782
858.342	29.805
858.363	29.800
858.384	29.713
858.406	29.773
858.426	29.703
858.447	29.773
858.468	29.791
858.489	29.727
858.510	29.699
858.531	29.680
858.552	29.675
858.573	29.773
858.594	29.805
858.615	29.759
858.636	29.782
858.657	29.759
858.678	29.759
858.699	29.791
858.720	29.795
858.741	29.722
858.762	29.717
858.783	29.764
858.804	29.727
858.825	29.754
858.846	29.722
858.867	29.823
858.888	29.841
858.908	29.741
858.929	29.768
858.950	29.754
858.971	29.708
858.992	29.827
859.013	29.750
859.034	29.764
859.055	29.703
859.076	29.741
859.097	29.786
859.117	29.805
859.138	29.736
859.159	29.741
859.180	29.791
859.201	29.717
859.222	29.759
859.243	29.727
859.264	29.741
859.284	29.713
859.305	29.741
859.326	29.759
859.347	29.786
859.368	29.777
859.389	29.736
859.410	29.708
859.430	29.759
859.451	29.777
859.472	29.754
859.493	29.741
859.514	29.754
859.534	29.768
859.555	29.809
859.576	29.759
859.597	29.791
