Wavelength (nm)	Rel. spec. intensity (dB)
847.409	29.745
847.432	29.777
847.454	29.777
847.477	29.818
847.499	29.764
847.522	29.791
847.545	29.795
847.567	29.750
847.590	29.703
847.613	29.750
847.635	29.722
847.658	29.836
847.680	29.786
847.703	29.745
847.726	29.731
847.748	29.685
847.771	29.666
847.793	29.745
847.816	29.722
847.839	29.703
847.861	29.736
847.884	29.795
847.906	29.745
847.929	29.814
847.951	29.777
847.974	29.717
847.996	29.764
848.019	29.689
848.042	29.717
848.064	29.759
848.087	29.795
848.109	29.708
848.132	29.671
848.154	29.731
848.177	29.741
848.199	29.786
848.222	29.703
848.244	29.717
848.267	29.703
848.289	29.741
848.312	29.750
848.334	29.703
848.357	29.717
848.379	29.759
848.402	29.827
848.424	29.809
848.447	29.754
848.469	29.685
848.492	29.666
848.514	29.764
848.537	29.727
848.559	29.764
848.582	29.809
848.604	29.850
848.627	29.768
848.649	29.754
848.672	29.814
848.694	29.809
848.717	29.773
848.739	29.759
848.761	29.777
848.784	29.750
848.806	29.754
848.829	29.713
848.851	29.694
848.874	29.708
848.896	29.754
848.919	29.722
848.941	29.703
848.963	29.759
848.986	29.777
849.008	29.736
849.031	29.750
849.053	29.731
849.075	29.768
849.098	29.722
849.120	29.717
849.143	29.717
849.165	29.759
849.187	29.717
849.210	29.717
849.232	29.717
849.254	29.764
849.277	29.727
849.299	29.859
849.322	29.694
849.344	29.764
849.366	29.759
849.389	29.759
849.411	29.741
849.433	29.777
849.456	29.759
849.478	29.786
849.500	29.754
849.523	29.754
849.545	29.759
849.567	29.741
849.590	29.768
849.612	29.759
849.634	29.745
849.657	29.675
849.679	29.699
849.701	29.745
849.724	29.836
849.746	29.786
849.768	29.768
849.791	29.791
849.813	29.795
849.835	29.713
849.857	29.795
849.880	29.791
849.902	29.736
849.924	29.713
849.946	29.713
849.969	29.786
849.991	29.827
850.013	29.675
850.036	29.736
850.058	29.782
850.080	29.745
850.102	29.805
850.125	29.722
850.147	29.699
850.169	29.671
850.191	29.713
850.214	29.750
850.236	29.689
850.258	29.736
850.280	29.699
850.302	29.699
850.325	29.773
850.347	29.717
850.369	29.731
850.391	29.727
850.414	29.754
850.436	29.818
850.458	29.703
850.480	29.722
850.502	29.731
850.524	29.786
850.547	29.777
850.569	29.809
850.591	29.777
850.613	29.745
850.635	29.736
850.658	29.745
850.680	29.754
850.702	29.680
850.724	29.773
850.746	29.814
850.768	29.713
850.791	29.750
850.813	29.722
850.835	29.786
850.857	29.750
850.879	29.731
850.901	29.703
850.923	29.750
850.945	29.741
850.968	29.773
850.990	29.827
851.012	29.736
851.034	29.717
851.056	29.703
851.078	29.750
851.100	29.703
851.122	29.717
851.144	29.731
851.167	29.685
851.189	29.741
851.211	29.717
851.233	29.727
851.255	29.809
851.277	29.805
851.299	29.809
851.321	29.764
851.343	29.731
851.365	29.841
851.387	29.827
851.409	29.818
851.431	29.791
851.453	29.745
851.476	29.754
851.498	29.814
851.520	29.845
851.542	29.832
851.564	29.722
851.586	29.827
851.608	29.791
851.630	29.827
851.652	29.754
851.674	29.764
851.696	29.827
851.718	29.917
851.740	30.107
851.762	30.741
851.784	31.179
851.806	31.679
851.828	32.375
851.850	32.826
851.872	33.204
851.894	33.318
851.916	32.365
851.938	31.361
851.960	30.434
851.982	30.043
852.004	29.917
852.026	29.805
852.048	29.754
852.070	29.750
852.092	29.768
852.114	29.764
852.135	29.777
852.157	29.736
852.179	29.727
852.201	29.754
852.223	29.722
852.245	29.786
852.267	29.983
852.289	30.846
852.311	32.261
852.333	33.877
852.355	35.687
852.377	37.334
852.399	38.121
852.421	37.959
852.442	37.244
852.464	35.579
852.486	34.384
852.508	33.098
852.530	31.461
852.552	30.406
852.574	29.921
852.596	29.850
852.618	29.836
852.639	29.827
852.661	29.845
852.683	29.850
852.705	29.841
852.727	29.809
852.749	29.717
852.771	29.722
852.792	29.680
852.814	29.863
852.836	30.035
852.858	30.469
852.880	30.519
852.902	29.956
852.924	29.786
852.945	29.741
852.967	29.773
852.989	29.777
853.011	29.768
853.033	29.647
853.055	29.750
853.076	29.809
853.098	29.703
853.120	29.680
853.142	29.841
853.164	29.777
853.185	29.731
853.207	29.717
853.229	29.741
853.251	29.777
853.272	29.689
853.294	29.708
853.316	29.764
853.338	29.854
853.360	29.818
853.381	29.764
853.403	29.736
853.425	29.722
853.447	29.768
853.468	29.708
853.490	29.750
853.512	29.809
853.534	29.773
853.555	29.750
853.577	29.791
853.599	29.727
853.620	29.791
853.642	29.750
853.664	29.773
853.686	29.750
853.707	29.754
853.729	29.717
853.751	29.741
853.773	29.845
853.794	29.795
853.816	29.782
853.838	29.773
853.859	29.777
853.881	29.717
853.903	29.750
853.924	29.754
853.946	29.675
853.968	29.782
853.989	29.850
854.011	29.731
854.033	29.795
854.054	29.731
854.076	29.731
854.098	29.741
854.119	29.736
854.141	29.741
854.163	29.818
854.184	29.741
854.206	29.750
854.228	29.741
854.249	29.768
854.271	29.731
854.292	29.713
854.314	29.675
854.336	29.782
854.357	29.741
854.379	29.727
854.401	29.754
854.422	29.814
854.444	29.708
854.465	29.782
854.487	29.809
854.509	29.703
854.530	29.727
854.552	29.809
854.573	29.699
854.595	29.745
854.617	29.773
854.638	29.741
854.660	29.795
854.681	29.717
854.703	29.750
854.724	29.764
854.746	29.759
854.767	29.685
854.789	29.703
854.811	29.685
854.832	29.708
854.854	29.764
854.875	29.754
854.897	29.754
854.918	29.786
854.940	29.786
854.961	29.768
854.983	29.777
855.004	29.736
855.026	29.768
855.047	29.745
855.069	29.795
855.090	29.786
855.112	29.764
855.133	29.666
855.155	29.741
855.176	29.741
855.198	29.717
855.219	29.708
855.241	29.699
855.262	29.633
855.284	29.699
855.305	29.754
855.327	29.786
855.348	29.689
855.370	29.713
855.391	29.685
855.413	29.754
855.434	29.759
855.456	29.805
855.477	29.722
855.498	29.759
855.520	29.713
855.541	29.745
855.563	29.800
855.584	29.814
855.606	29.731
855.627	29.708
855.648	29.800
855.670	29.717
855.691	29.773
855.713	29.703
855.734	29.699
855.755	29.717
855.777	29.764
855.798	29.722
855.820	29.782
855.841	29.745
855.862	29.731
855.884	29.699
855.905	29.713
855.927	29.745
855.948	29.614
855.969	29.736
855.991	29.685
856.012	29.736
856.033	29.741
856.055	29.722
856.076	29.773
856.098	29.768
856.119	29.759
856.140	29.671
856.162	29.717
856.183	29.675
856.204	29.717
856.226	29.782
856.247	29.671
856.268	29.759
856.290	29.671
856.311	29.754
856.332	29.750
856.354	29.777
856.375	29.791
856.396	29.768
856.417	29.741
856.439	29.717
856.460	29.741
856.481	29.717
856.503	29.685
856.524	29.759
856.545	29.713
856.566	29.685
856.588	29.754
856.609	29.703
856.630	29.768
856.652	29.791
856.673	29.759
856.694	29.777
856.715	29.685
856.737	29.685
856.758	29.652
856.779	29.694
856.800	29.694
856.822	29.764
856.843	29.741
856.864	29.773
856.885	29.768
856.907	29.727
856.928	29.741
856.949	29.782
856.970	29.777
856.991	29.782
857.013	29.750
857.034	29.823
857.055	29.773
857.076	29.773
857.097	29.773
857.119	29.736
857.140	29.782
857.161	29.713
857.182	29.689
857.203	29.777
857.225	29.791
857.246	29.782
857.267	29.773
857.288	29.764
857.309	29.754
857.330	29.786
857.352	29.717
857.373	29.791
857.394	29.685
