Wavelength (nm)	Rel. spec. intensity (dB)
848.177	29.736
848.199	29.671
848.222	29.699
848.244	29.680
848.267	29.638
848.289	29.736
848.312	29.717
848.334	29.731
848.357	29.768
848.379	29.741
848.402	29.777
848.424	29.759
848.447	29.699
848.469	29.750
848.492	29.713
848.514	29.680
848.537	29.786
848.559	29.661
848.582	29.703
848.604	29.800
848.627	29.727
848.649	29.722
848.672	29.791
848.694	29.754
848.717	29.731
848.739	29.773
848.761	29.782
848.784	29.694
848.806	29.666
848.829	29.809
848.851	29.657
848.874	29.736
848.896	29.671
848.919	29.782
848.941	29.727
848.963	29.694
848.986	29.666
849.008	29.685
849.031	29.791
849.053	29.689
849.075	29.694
849.098	29.736
849.120	29.809
849.143	29.759
849.165	29.638
849.187	29.633
849.210	29.708
849.232	29.703
849.254	29.722
849.277	29.708
849.299	29.689
849.322	29.795
849.344	29.722
849.366	29.731
849.389	29.836
849.411	29.791
849.433	29.703
849.456	29.657
849.478	29.791
849.500	29.713
849.523	29.768
849.545	29.731
849.567	29.666
849.590	29.666
849.612	29.694
849.634	29.754
849.657	29.786
849.679	29.713
849.701	29.754
849.724	29.661
849.746	29.731
849.768	29.750
849.791	29.609
849.813	29.666
849.835	29.643
849.857	29.764
849.880	29.754
849.902	29.745
849.924	29.680
849.946	29.685
849.969	29.736
849.991	29.736
850.013	29.699
850.036	29.628
850.058	29.699
850.080	29.759
850.102	29.694
850.125	29.736
850.147	29.628
850.169	29.671
850.191	29.638
850.214	29.685
850.236	29.675
850.258	29.703
850.280	29.708
850.302	29.722
850.325	29.768
850.347	29.764
850.369	29.786
850.391	29.689
850.414	29.717
850.436	29.717
850.458	29.750
850.480	29.759
850.502	29.671
850.524	29.694
850.547	29.657
850.569	29.628
850.591	29.586
850.613	29.731
850.635	29.741
850.658	29.768
850.680	29.713
850.702	29.699
850.724	29.699
850.746	29.699
850.768	29.750
850.791	29.680
850.813	29.657
850.835	29.759
850.857	29.713
850.879	29.736
850.901	29.750
850.923	29.685
850.945	29.727
850.968	29.736
850.990	29.708
851.012	29.722
851.034	29.754
851.056	29.764
851.078	29.717
851.100	29.800
851.122	29.736
851.144	29.777
851.167	29.727
851.189	29.800
851.211	29.750
851.233	29.777
851.255	29.759
851.277	29.764
851.299	29.736
851.321	29.600
851.343	29.731
851.365	29.689
851.387	29.754
851.409	29.731
851.431	29.731
851.453	29.764
851.476	29.741
851.498	29.713
851.520	29.768
851.542	29.736
851.564	29.727
851.586	29.741
851.608	29.786
851.630	29.647
851.652	29.795
851.674	29.727
851.696	29.657
851.718	29.717
851.740	29.699
851.762	29.609
851.784	29.699
851.806	29.773
851.828	29.750
851.850	29.741
851.872	29.703
851.894	29.773
851.916	29.768
851.938	29.827
851.960	29.717
851.982	29.713
852.004	29.685
852.026	29.741
852.048	29.643
852.070	29.786
852.092	29.773
852.114	29.731
852.135	29.708
852.157	29.736
852.179	29.814
852.201	29.736
852.223	29.764
852.245	30.077
852.267	30.286
852.289	30.906
852.311	31.517
852.333	32.172
852.355	32.584
852.377	31.984
852.399	30.896
852.421	30.195
852.442	29.974
852.464	29.814
852.486	29.750
852.508	29.694
852.530	29.736
852.552	29.694
852.574	29.754
852.596	29.768
852.618	29.750
852.639	29.694
852.661	29.782
852.683	29.754
852.705	29.685
852.727	29.727
852.749	29.795
852.771	29.754
852.792	29.809
852.814	29.768
852.836	29.782
852.858	29.881
852.880	29.917
852.902	29.974
852.924	30.179
852.945	30.469
852.967	30.766
852.989	31.222
853.011	31.735
853.033	32.395
853.055	32.674
853.076	33.292
853.098	34.476
853.120	35.815
853.142	36.792
853.164	37.043
853.185	36.998
853.207	36.244
853.229	34.853
853.251	33.760
853.272	32.408
853.294	31.011
853.316	30.257
853.338	29.934
853.360	29.845
853.381	29.881
853.403	29.741
853.425	29.782
853.447	29.727
853.468	29.795
853.490	29.827
853.512	29.754
853.534	29.754
853.555	29.854
853.577	29.731
853.599	29.759
853.620	29.750
853.642	29.764
853.664	29.872
853.686	30.009
853.707	30.220
853.729	30.378
853.751	30.799
853.773	31.700
853.794	32.951
853.816	34.360
853.838	35.494
853.859	35.945
853.881	36.317
853.903	36.549
853.924	36.164
853.946	35.368
853.968	34.143
853.989	32.648
854.011	31.072
854.033	30.170
854.054	29.926
854.076	29.886
854.098	29.727
854.119	29.782
854.141	29.750
854.163	29.836
854.184	29.713
854.206	29.777
854.228	29.694
854.249	29.731
854.271	29.661
854.292	29.745
854.314	29.764
854.336	29.713
854.357	29.731
854.379	29.736
854.401	29.699
854.422	29.727
854.444	29.661
854.465	29.661
854.487	29.727
854.509	29.694
854.530	29.759
854.552	29.717
854.573	29.795
854.595	29.727
854.617	29.764
854.638	29.859
854.660	29.782
854.681	29.809
854.703	29.782
854.724	29.708
854.746	29.699
854.767	29.836
854.789	29.685
854.811	29.628
854.832	29.722
854.854	29.699
854.875	29.773
854.897	29.736
854.918	29.768
854.940	29.764
854.961	29.694
854.983	29.754
855.004	29.703
855.026	29.731
855.047	29.708
855.069	29.717
855.090	29.699
855.112	29.722
855.133	29.685
855.155	29.666
855.176	29.713
855.198	29.731
855.219	29.768
855.241	29.795
855.262	29.694
855.284	29.786
855.305	29.722
855.327	29.764
855.348	29.708
855.370	29.745
855.391	29.759
855.413	29.754
855.434	29.694
855.456	29.703
855.477	29.657
855.498	29.731
855.520	29.675
855.541	29.764
855.563	29.777
855.584	29.832
855.606	29.689
855.627	29.624
855.648	29.703
855.670	29.722
855.691	29.624
855.713	29.764
855.734	29.777
855.755	29.713
855.777	29.764
855.798	29.773
855.820	29.786
855.841	29.731
855.862	29.773
855.884	29.680
855.905	29.661
855.927	29.689
855.948	29.731
855.969	29.731
855.991	29.786
856.012	29.736
856.033	29.731
856.055	29.736
856.076	29.703
856.098	29.722
856.119	29.750
856.140	29.745
856.162	29.717
856.183	29.773
856.204	29.680
856.226	29.764
856.247	29.754
856.268	29.717
856.290	29.759
856.311	29.754
856.332	29.727
856.354	29.717
856.375	29.717
856.396	29.699
856.417	29.680
856.439	29.708
856.460	29.736
856.481	29.768
856.503	29.827
856.524	29.759
856.545	29.657
856.566	29.680
856.588	29.713
856.609	29.638
856.630	29.708
856.652	29.731
856.673	29.689
856.694	29.675
856.715	29.671
856.737	29.628
856.758	29.722
856.779	29.643
856.800	29.703
856.822	29.699
856.843	29.713
856.864	29.685
856.885	29.731
856.907	29.750
856.928	29.727
856.949	29.727
856.970	29.759
856.991	29.722
857.013	29.764
857.034	29.713
857.055	29.694
857.076	29.703
857.097	29.731
857.119	29.703
857.140	29.694
857.161	29.717
857.182	29.666
857.203	29.689
857.225	29.773
857.246	29.736
857.267	29.717
857.288	29.703
857.309	29.741
857.330	29.652
857.352	29.750
857.373	29.717
857.394	29.836
857.415	29.666
857.436	29.741
857.457	29.680
857.479	29.699
857.500	29.750
857.521	29.647
857.542	29.689
857.563	29.722
857.584	29.699
857.605	29.713
857.626	29.750
857.648	29.736
857.669	29.750
857.690	29.727
857.711	29.717
857.732	29.694
857.753	29.652
857.774	29.643
857.795	29.671
857.816	29.703
857.837	29.745
857.859	29.741
857.880	29.782
857.901	29.722
857.922	29.745
857.943	29.736
857.964	29.741
857.985	29.782
858.006	29.722
858.027	29.750
858.048	29.717
858.069	29.750
858.090	29.717
858.111	29.689
858.132	29.722
858.153	29.699
