Wavelength (nm)	Rel. spec. intensity (dB)
842.442	29.773
842.466	29.736
842.489	29.717
842.512	29.643
842.536	29.722
842.559	29.675
842.582	29.773
842.606	29.708
842.629	29.703
842.652	29.671
842.676	29.699
842.699	29.699
842.722	29.689
842.746	29.717
842.769	29.647
842.792	29.727
842.815	29.768
842.839	29.750
842.862	29.717
842.885	29.741
842.909	29.703
842.932	29.694
842.955	29.795
842.978	29.754
843.002	29.731
843.025	29.745
843.048	29.633
843.071	29.680
843.095	29.708
843.118	29.694
843.141	29.680
843.164	29.657
843.188	29.764
843.211	29.727
843.234	29.754
843.257	29.731
843.281	29.694
843.304	29.727
843.327	29.750
843.350	29.745
843.374	29.731
843.397	29.694
843.420	29.731
843.443	29.759
843.466	29.754
843.490	29.685
843.513	29.717
843.536	29.782
843.559	29.657
843.582	29.703
843.606	29.652
843.629	29.741
843.652	29.731
843.675	29.699
843.698	29.694
843.721	29.814
843.745	29.731
843.768	29.647
843.791	29.759
843.814	29.750
843.837	29.689
843.860	29.699
843.883	29.671
843.907	29.759
843.930	29.727
843.953	29.680
843.976	29.657
843.999	29.722
844.022	29.741
844.045	29.764
844.069	29.727
844.092	29.689
844.115	29.675
844.138	29.750
844.161	29.680
844.184	29.773
844.207	29.805
844.230	29.731
844.253	29.717
844.276	29.717
844.300	29.699
844.323	29.689
844.346	29.713
844.369	29.717
844.392	29.754
844.415	29.727
844.438	29.750
844.461	29.703
844.484	29.666
844.507	29.717
844.530	29.628
844.553	29.736
844.576	29.699
844.599	29.722
844.622	29.727
844.645	29.731
844.668	29.666
844.692	29.754
844.715	29.671
844.738	29.708
844.761	29.647
844.784	29.745
844.807	29.713
844.830	29.750
844.853	29.685
844.876	29.671
844.899	29.671
844.922	29.703
844.945	29.694
844.968	29.713
844.991	29.699
845.014	29.689
845.037	29.713
845.060	29.675
845.083	29.689
845.105	29.680
845.128	29.675
845.151	29.689
845.174	29.666
845.197	29.722
845.220	29.699
845.243	29.666
845.266	29.722
845.289	29.694
845.312	29.754
845.335	29.717
845.358	29.731
845.381	29.722
845.404	29.754
845.427	29.800
845.450	29.768
845.473	29.750
845.496	29.708
845.518	29.708
845.541	29.708
845.564	29.741
845.587	29.703
845.610	29.717
845.633	29.685
845.656	29.717
845.679	29.689
845.702	29.647
845.724	29.703
845.747	29.731
845.770	29.791
845.793	29.685
845.816	29.750
845.839	29.777
845.862	29.764
845.885	29.786
845.907	29.722
845.930	29.708
845.953	29.777
845.976	29.666
845.999	29.689
846.022	29.782
846.045	29.694
846.067	29.694
846.090	29.713
846.113	29.647
846.136	29.768
846.159	29.657
846.182	29.722
846.204	29.708
846.227	29.713
846.250	29.754
846.273	29.699
846.296	29.694
846.318	29.717
846.341	29.777
846.364	29.764
846.387	29.675
846.410	29.652
846.432	29.777
846.455	29.741
846.478	29.731
846.501	29.750
846.523	29.764
846.546	29.694
846.569	29.731
846.592	29.764
846.614	29.703
846.637	29.722
846.660	29.754
846.683	29.736
846.705	29.754
846.728	29.745
846.751	29.680
846.774	29.727
846.796	29.764
846.819	29.823
846.842	29.845
846.865	30.073
846.887	30.945
846.910	31.798
846.933	32.494
846.955	33.023
846.978	33.406
847.001	32.971
847.023	32.076
847.046	31.367
847.069	30.445
847.092	29.969
847.114	29.750
847.137	29.727
847.160	29.754
847.182	29.777
847.205	29.754
847.228	29.809
847.250	29.805
847.273	29.768
847.296	30.554
847.318	31.824
847.341	33.306
847.364	34.873
847.386	36.506
847.409	37.614
847.432	37.941
847.454	37.423
847.477	36.137
847.499	34.799
847.522	33.510
847.545	32.335
847.567	31.024
847.590	30.204
847.613	29.908
847.635	29.952
847.658	29.791
847.680	29.782
847.703	29.809
847.726	29.943
847.748	31.209
847.771	32.232
847.793	33.226
847.816	34.198
847.839	33.950
847.861	32.769
847.884	31.931
847.906	30.561
847.929	29.969
847.951	29.795
847.974	29.791
847.996	29.773
848.019	29.764
848.042	29.745
848.064	29.809
848.087	29.745
848.109	29.703
848.132	29.759
848.154	29.722
848.177	29.786
848.199	29.722
848.222	29.671
848.244	29.713
848.267	29.722
848.289	29.717
848.312	29.671
848.334	29.685
848.357	29.717
848.379	29.643
848.402	29.727
848.424	29.699
848.447	29.689
848.469	29.633
848.492	29.727
848.514	29.836
848.537	29.791
848.559	29.773
848.582	29.722
848.604	29.736
848.627	29.741
848.649	29.745
848.672	29.713
848.694	29.777
848.717	29.782
848.739	29.722
848.761	29.795
848.784	29.777
848.806	29.699
848.829	29.736
848.851	29.727
848.874	29.717
848.896	29.754
848.919	29.731
848.941	29.750
848.963	29.773
848.986	29.708
849.008	29.717
849.031	29.722
849.053	29.722
849.075	29.814
849.098	29.814
849.120	29.675
849.143	29.717
849.165	29.703
849.187	29.745
849.210	29.694
849.232	29.717
849.254	29.708
849.277	29.675
849.299	29.727
849.322	29.699
849.344	29.800
849.366	29.745
849.389	29.791
849.411	29.745
849.433	29.745
849.456	29.708
849.478	29.750
849.500	29.657
849.523	29.694
849.545	29.759
849.567	29.764
849.590	29.745
849.612	29.768
849.634	29.741
849.657	29.731
849.679	29.703
849.701	29.703
849.724	29.786
849.746	29.745
849.768	29.680
849.791	29.708
849.813	29.675
849.835	29.619
849.857	29.689
849.880	29.708
849.902	29.736
849.924	29.791
849.946	29.805
849.969	29.736
849.991	29.731
850.013	29.727
850.036	29.722
850.058	29.666
850.080	29.777
850.102	29.708
850.125	29.741
850.147	29.736
850.169	29.722
850.191	29.699
850.214	29.727
850.236	29.727
850.258	29.661
850.280	29.777
850.302	29.666
850.325	29.694
850.347	29.750
850.369	29.782
850.391	29.741
850.414	29.764
850.436	29.689
850.458	29.791
850.480	29.795
850.502	29.736
850.524	29.703
850.547	29.750
850.569	29.795
850.591	29.717
850.613	29.643
850.635	29.722
850.658	29.657
850.680	29.713
850.702	29.741
850.724	29.768
850.746	29.699
850.768	29.675
850.791	29.685
850.813	29.764
850.835	29.741
850.857	29.680
850.879	29.764
850.901	29.699
850.923	29.741
850.945	29.722
850.968	29.750
850.990	29.661
851.012	29.736
851.034	29.666
851.056	29.768
851.078	29.699
851.100	29.759
851.122	29.750
851.144	29.708
851.167	29.731
851.189	29.713
851.211	29.713
851.233	29.717
851.255	29.703
851.277	29.689
851.299	29.745
851.321	29.809
851.343	29.754
851.365	29.805
851.387	29.759
851.409	29.736
851.431	29.703
851.453	29.689
851.476	29.694
851.498	29.708
851.520	29.768
851.542	29.713
851.564	29.754
851.586	29.694
851.608	29.694
851.630	29.685
851.652	29.708
851.674	29.805
851.696	29.731
851.718	29.703
851.740	29.722
851.762	29.773
851.784	29.685
851.806	29.694
851.828	29.827
851.850	29.727
851.872	29.694
851.894	29.717
851.916	29.750
851.938	29.699
851.960	29.685
851.982	29.703
852.004	29.699
852.026	29.689
852.048	29.754
852.070	29.754
852.092	29.745
852.114	29.713
852.135	29.689
852.157	29.699
852.179	29.823
852.201	29.694
852.223	29.685
852.245	29.754
852.267	29.708
852.289	29.609
852.311	29.675
852.333	29.717
852.355	29.741
852.377	29.782
852.399	29.680
852.421	29.643
