Wavelength (nm)	Rel. spec. intensity (dB)
844.276	29.845
844.300	29.872
844.323	29.795
844.346	29.800
844.369	29.795
844.392	29.859
844.415	29.894
844.438	29.805
844.461	29.777
844.484	29.827
844.507	29.809
844.530	29.791
844.553	29.786
844.576	29.791
844.599	29.795
844.622	29.832
844.645	29.868
844.668	29.841
844.692	29.773
844.715	29.832
844.738	29.863
844.761	29.823
844.784	29.809
844.807	29.845
844.830	29.782
844.853	29.818
844.876	29.827
844.899	29.845
844.922	29.768
844.945	29.854
844.968	29.854
844.991	29.805
845.014	29.881
845.037	29.872
845.060	29.845
845.083	29.912
845.105	29.809
845.128	29.836
845.151	29.863
845.174	29.908
845.197	29.868
845.220	29.863
845.243	29.850
845.266	29.764
845.289	29.934
845.312	29.823
845.335	29.841
845.358	29.845
845.381	29.917
845.404	29.841
845.427	29.818
845.450	29.814
845.473	29.863
845.496	29.795
845.518	29.795
845.541	29.791
845.564	29.795
845.587	29.845
845.610	29.881
845.633	29.827
845.656	29.845
845.679	29.877
845.702	29.872
845.724	29.836
845.747	29.841
845.770	29.795
845.793	29.841
845.816	29.845
845.839	29.863
845.862	29.786
845.885	29.948
845.907	29.872
845.930	29.890
845.953	29.827
845.976	29.800
845.999	29.863
846.022	29.854
846.045	29.791
846.067	29.814
846.090	29.854
846.113	29.859
846.136	29.868
846.159	29.782
846.182	29.800
846.204	29.805
846.227	29.868
846.250	29.818
846.273	29.791
846.296	29.814
846.318	29.832
846.341	29.850
846.364	29.795
846.387	29.795
846.410	29.836
846.432	29.894
846.455	29.773
846.478	29.764
846.501	29.859
846.523	29.877
846.546	29.795
846.569	29.832
846.592	29.845
846.614	29.754
846.637	29.708
846.660	29.777
846.683	29.845
846.705	29.809
846.728	29.836
846.751	29.841
846.774	29.841
846.796	29.805
846.819	29.823
846.842	29.859
846.865	29.814
846.887	29.795
846.910	29.809
846.933	29.845
846.955	29.777
846.978	29.863
847.001	29.782
847.023	29.872
847.046	29.836
847.069	29.809
847.092	29.845
847.114	29.809
847.137	29.912
847.160	29.836
847.182	29.809
847.205	29.899
847.228	29.859
847.250	29.863
847.273	29.863
847.296	29.832
847.318	29.854
847.341	29.795
847.364	29.877
847.386	29.823
847.409	29.836
847.432	29.809
847.454	29.786
847.477	29.786
847.499	29.890
847.522	29.863
847.545	29.823
847.567	29.800
847.590	29.841
847.613	29.845
847.635	29.805
847.658	29.809
847.680	29.850
847.703	29.850
847.726	29.863
847.748	29.823
847.771	29.832
847.793	29.908
847.816	29.850
847.839	29.854
847.861	29.764
847.884	29.877
847.906	29.859
847.929	29.850
847.951	29.850
847.974	29.877
847.996	29.814
848.019	29.859
848.042	29.836
848.064	29.791
848.087	29.827
848.109	29.845
848.132	29.863
848.154	29.836
848.177	29.854
848.199	29.800
848.222	29.859
848.244	29.773
848.267	29.777
848.289	29.814
848.312	29.850
848.334	29.777
848.357	29.827
848.379	29.881
848.402	29.926
848.424	29.841
848.447	29.827
848.469	29.836
848.492	29.823
848.514	29.921
848.537	29.872
848.559	29.859
848.582	29.854
848.604	29.786
848.627	29.777
848.649	29.818
848.672	29.809
848.694	29.886
848.717	29.859
848.739	29.836
848.761	29.827
848.784	29.863
848.806	29.903
848.829	29.886
848.851	29.863
848.874	30.043
848.896	30.077
848.919	29.921
848.941	29.854
848.963	29.890
848.986	29.850
849.008	29.899
849.031	29.908
849.053	29.930
849.075	30.133
849.098	30.856
849.120	31.872
849.143	33.021
849.165	34.478
849.187	36.035
849.210	37.035
849.232	37.373
849.254	37.600
849.277	37.329
849.299	36.029
849.322	34.176
849.344	32.749
849.366	31.370
849.389	30.603
849.411	30.216
849.433	30.273
849.456	31.245
849.478	32.310
849.500	33.522
849.523	34.765
849.545	36.072
849.567	37.128
849.590	37.317
849.612	36.259
849.634	34.285
849.657	32.788
849.679	31.126
849.701	30.273
849.724	30.035
849.746	29.978
849.768	29.917
849.791	29.991
849.813	29.956
849.835	29.996
849.857	30.065
849.880	29.952
849.902	29.886
849.924	29.912
849.946	29.930
849.969	29.912
849.991	29.939
850.013	29.823
850.036	29.863
850.058	29.845
850.080	29.850
850.102	29.841
850.125	29.881
850.147	29.814
850.169	29.836
850.191	29.836
850.214	29.886
850.236	29.845
850.258	29.926
850.280	29.854
850.302	29.800
850.325	29.832
850.347	29.881
850.369	29.868
850.391	29.809
850.414	29.890
850.436	29.863
850.458	29.827
850.480	29.814
850.502	29.786
850.524	29.754
850.547	29.908
850.569	29.917
850.591	29.777
850.613	29.863
850.635	29.827
850.658	29.890
850.680	29.872
850.702	29.800
850.724	29.791
850.746	29.894
850.768	29.773
850.791	29.759
850.813	29.791
850.835	29.827
850.857	29.863
850.879	29.859
850.901	29.827
850.923	29.795
850.945	29.868
850.968	29.845
850.990	29.841
851.012	29.795
851.034	29.841
851.056	29.809
851.078	29.832
851.100	29.795
851.122	29.859
851.144	29.823
851.167	29.930
851.189	29.872
851.211	29.809
851.233	29.809
851.255	29.750
851.277	29.850
851.299	29.841
851.321	29.800
851.343	29.823
851.365	29.845
851.387	29.854
851.409	29.854
851.431	29.805
851.453	29.877
851.476	29.850
851.498	29.863
851.520	29.750
851.542	29.845
851.564	29.786
851.586	29.859
851.608	29.859
851.630	29.827
851.652	29.809
851.674	29.841
851.696	29.800
851.718	29.768
851.740	29.795
851.762	29.809
851.784	29.859
851.806	29.805
851.828	29.859
851.850	29.795
851.872	29.872
851.894	29.850
851.916	29.841
851.938	29.832
851.960	29.894
851.982	29.836
852.004	29.881
852.026	29.832
852.048	29.827
852.070	29.859
852.092	29.921
852.114	29.899
852.135	29.832
852.157	29.850
852.179	29.809
852.201	29.868
852.223	29.845
852.245	29.890
852.267	29.863
852.289	29.859
852.311	29.832
852.333	29.859
852.355	29.759
852.377	29.841
852.399	29.850
852.421	29.863
852.442	29.841
852.464	29.782
852.486	29.791
852.508	29.809
852.530	29.868
852.552	29.917
852.574	29.894
852.596	29.823
852.618	29.814
852.639	29.754
852.661	29.754
852.683	29.736
852.705	29.854
852.727	29.863
852.749	29.886
852.771	29.836
852.792	29.868
852.814	29.845
852.836	29.818
852.858	29.832
852.880	29.827
852.902	29.805
852.924	29.845
852.945	29.921
852.967	29.890
852.989	29.863
853.011	29.845
853.033	29.899
853.055	29.863
853.076	29.809
853.098	29.827
853.120	29.863
853.142	29.786
853.164	29.823
853.185	29.877
853.207	29.877
853.229	29.845
853.251	29.899
853.272	29.805
853.294	29.881
853.316	29.872
853.338	29.886
853.360	29.791
853.381	29.890
853.403	29.836
853.425	29.872
853.447	29.814
853.468	29.854
853.490	29.854
853.512	29.836
853.534	29.795
853.555	29.750
853.577	29.827
853.599	29.809
853.620	29.850
853.642	29.854
853.664	29.872
853.686	29.832
853.707	29.814
853.729	29.768
853.751	29.827
853.773	29.850
853.794	29.859
853.816	29.894
853.838	29.841
853.859	29.872
853.881	29.823
853.903	29.877
853.924	29.800
853.946	29.750
853.968	29.903
853.989	29.939
854.011	29.841
854.033	29.868
854.054	29.854
854.076	29.894
854.098	29.894
854.119	29.877
854.141	29.791
854.163	29.836
854.184	29.832
854.206	29.809
854.228	29.836
854.249	29.764
