Wavelength (nm)	Rel. spec. intensity (dB)
845.633	29.736
845.656	29.764
845.679	29.685
845.702	29.699
845.724	29.773
845.747	29.741
845.770	29.722
845.793	29.750
845.816	29.768
845.839	29.768
845.862	29.717
845.885	29.708
845.907	29.713
845.930	29.741
845.953	29.741
845.976	29.754
845.999	29.782
846.022	29.722
846.045	29.727
846.067	29.795
846.090	29.800
846.113	29.754
846.136	29.741
846.159	29.823
846.182	29.745
846.204	29.750
846.227	29.699
846.250	29.713
846.273	29.827
846.296	29.805
846.318	29.722
846.341	29.764
846.364	29.685
846.387	29.694
846.410	29.764
846.432	29.854
846.455	29.689
846.478	29.717
846.501	29.759
846.523	29.768
846.546	29.777
846.569	29.638
846.592	29.764
846.614	29.814
846.637	29.671
846.660	29.694
846.683	29.764
846.705	29.791
846.728	29.827
846.751	29.731
846.774	29.777
846.796	29.717
846.819	29.727
846.842	29.759
846.865	29.717
846.887	29.708
846.910	29.764
846.933	29.745
846.955	29.703
846.978	29.773
847.001	29.731
847.023	29.754
847.046	29.736
847.069	29.713
847.092	29.750
847.114	29.722
847.137	29.731
847.160	29.633
847.182	29.675
847.205	29.643
847.228	29.619
847.250	29.722
847.273	29.703
847.296	29.717
847.318	29.689
847.341	29.745
847.364	29.703
847.386	29.736
847.409	29.736
847.432	29.671
847.454	29.713
847.477	29.703
847.499	29.786
847.522	29.661
847.545	29.768
847.567	29.717
847.590	29.647
847.613	29.731
847.635	29.750
847.658	29.841
847.680	29.791
847.703	29.694
847.726	29.657
847.748	29.791
847.771	29.750
847.793	29.736
847.816	29.722
847.839	29.722
847.861	29.773
847.884	29.795
847.906	29.782
847.929	29.736
847.951	29.722
847.974	29.736
847.996	29.736
848.019	29.722
848.042	29.764
848.064	29.773
848.087	29.731
848.109	29.750
848.132	29.736
848.154	29.713
848.177	29.694
848.199	29.782
848.222	29.736
848.244	29.689
848.267	29.731
848.289	29.773
848.312	29.727
848.334	29.727
848.357	29.791
848.379	29.782
848.402	29.836
848.424	29.736
848.447	29.764
848.469	29.814
848.492	29.773
848.514	29.754
848.537	29.750
848.559	29.795
848.582	29.731
848.604	29.805
848.627	29.741
848.649	29.764
848.672	29.694
848.694	29.805
848.717	29.805
848.739	29.768
848.761	29.777
848.784	29.768
848.806	29.722
848.829	29.736
848.851	29.777
848.874	29.759
848.896	29.768
848.919	29.773
848.941	29.863
848.963	29.722
848.986	29.741
849.008	29.750
849.031	29.666
849.053	29.795
849.075	29.736
849.098	29.736
849.120	29.685
849.143	29.727
849.165	29.713
849.187	29.736
849.210	29.754
849.232	29.764
849.254	29.713
849.277	29.805
849.299	29.759
849.322	29.750
849.344	29.759
849.366	29.736
849.389	29.745
849.411	29.773
849.433	29.754
849.456	29.841
849.478	29.805
849.500	29.741
849.523	29.703
849.545	29.814
849.567	29.764
849.590	29.773
849.612	29.754
849.634	29.727
849.657	29.717
849.679	29.666
849.701	29.689
849.724	29.777
849.746	29.764
849.768	29.782
849.791	29.773
849.813	29.731
849.835	29.741
849.857	29.727
849.880	29.823
849.902	29.717
849.924	29.722
849.946	29.717
849.969	29.768
849.991	29.671
850.013	29.722
850.036	29.675
850.058	29.777
850.080	29.750
850.102	29.717
850.125	29.741
850.147	29.764
850.169	29.731
850.191	29.661
850.214	29.727
850.236	29.832
850.258	29.694
850.280	29.795
850.302	29.754
850.325	29.863
850.347	30.253
850.369	30.973
850.391	31.173
850.414	30.390
850.436	29.952
850.458	29.845
850.480	29.791
850.502	29.818
850.524	29.791
850.547	30.374
850.569	31.764
850.591	32.769
850.613	33.731
850.635	33.402
850.658	31.937
850.680	30.792
850.702	30.056
850.724	29.786
850.746	29.750
850.768	29.777
850.791	29.745
850.813	29.786
850.835	29.741
850.857	29.736
850.879	29.759
850.901	29.731
850.923	29.727
850.945	29.773
850.968	29.782
850.990	29.741
851.012	29.722
851.034	29.773
851.056	29.666
851.078	29.745
851.100	29.777
851.122	29.708
851.144	29.722
851.167	29.731
851.189	29.768
851.211	29.786
851.233	29.791
851.255	29.773
851.277	29.786
851.299	29.713
851.321	29.777
851.343	29.786
851.365	29.736
851.387	29.708
851.409	29.689
851.431	29.699
851.453	29.713
851.476	29.703
851.498	29.759
851.520	29.759
851.542	29.759
851.564	29.759
851.586	29.754
851.608	29.836
851.630	29.768
851.652	29.652
851.674	29.754
851.696	29.675
851.718	29.814
851.740	29.782
851.762	29.717
851.784	29.685
851.806	29.722
851.828	29.736
851.850	29.782
851.872	29.727
851.894	29.741
851.916	29.768
851.938	29.694
851.960	29.731
851.982	29.759
852.004	29.754
852.026	29.782
852.048	29.731
852.070	29.722
852.092	29.703
852.114	29.736
852.135	29.699
852.157	29.791
852.179	29.713
852.201	29.754
852.223	29.675
852.245	29.731
852.267	29.708
852.289	29.722
852.311	29.777
852.333	29.745
852.355	29.741
852.377	29.741
852.399	29.671
852.421	29.768
852.442	29.754
852.464	29.736
852.486	29.786
852.508	29.782
852.530	29.814
852.552	29.741
852.574	29.708
852.596	29.750
852.618	29.675
852.639	29.694
852.661	29.731
852.683	29.736
852.705	29.671
852.727	29.809
852.749	29.768
852.771	29.773
852.792	29.731
852.814	29.741
852.836	29.777
852.858	29.827
852.880	29.731
852.902	29.750
852.924	29.741
852.945	29.764
852.967	29.727
852.989	29.768
853.011	29.685
853.033	29.708
853.055	29.717
853.076	29.791
853.098	29.777
853.120	29.773
853.142	29.782
853.164	29.773
853.185	29.708
853.207	29.768
853.229	29.694
853.251	29.759
853.272	29.703
853.294	29.722
853.316	29.759
853.338	29.786
853.360	29.764
853.381	29.722
853.403	29.685
853.425	29.708
853.447	29.736
853.468	29.722
853.490	29.699
853.512	29.809
853.534	29.832
853.555	29.814
853.577	29.754
853.599	29.782
853.620	29.731
853.642	29.795
853.664	29.759
853.686	29.800
853.707	29.685
853.729	29.722
853.751	29.713
853.773	29.795
853.794	29.754
853.816	29.754
853.838	29.759
853.859	29.768
853.881	29.773
853.903	29.773
853.924	29.657
853.946	29.731
853.968	29.745
853.989	29.754
854.011	29.782
854.033	29.671
854.054	29.782
854.076	29.741
854.098	29.805
854.119	29.717
854.141	29.736
854.163	29.680
854.184	29.782
854.206	29.699
854.228	29.713
854.249	29.722
854.271	29.745
854.292	29.741
854.314	29.768
854.336	29.768
854.357	29.764
854.379	29.717
854.401	29.764
854.422	29.685
854.444	29.741
854.465	29.782
854.487	29.745
854.509	29.731
854.530	29.708
854.552	29.741
854.573	29.731
854.595	29.768
854.617	29.722
854.638	29.754
854.660	29.694
854.681	29.685
854.703	29.777
854.724	29.750
854.746	29.736
854.767	29.773
854.789	29.745
854.811	29.680
854.832	29.717
854.854	29.750
854.875	29.759
854.897	29.717
854.918	29.680
854.940	29.768
854.961	29.791
854.983	29.782
855.004	29.699
855.026	29.736
855.047	29.736
855.069	29.777
855.090	29.741
855.112	29.713
855.133	29.689
855.155	29.745
855.176	29.708
855.198	29.754
855.219	29.764
855.241	29.699
855.262	29.745
855.284	29.809
855.305	29.759
855.327	29.805
855.348	29.717
855.370	29.754
855.391	29.750
855.413	29.741
855.434	29.727
855.456	29.759
855.477	29.768
855.498	29.773
855.520	29.722
855.541	29.786
855.563	29.745
855.584	29.795
855.606	29.750
