Wavelength (nm)	Rel. spec. intensity (dB)
842.209	29.717
842.232	29.773
842.255	29.685
842.279	29.759
842.302	29.741
842.326	29.717
842.349	29.694
842.372	29.768
842.396	29.638
842.419	29.741
842.442	29.703
842.466	29.717
842.489	29.768
842.512	29.685
842.536	29.791
842.559	29.795
842.582	29.671
842.606	29.727
842.629	29.717
842.652	29.703
842.676	29.809
842.699	29.745
842.722	29.741
842.746	29.759
842.769	29.671
842.792	29.666
842.815	29.685
842.839	29.727
842.862	29.685
842.885	29.777
842.909	29.736
842.932	29.727
842.955	29.657
842.978	29.727
843.002	29.727
843.025	29.717
843.048	29.713
843.071	29.773
843.095	29.750
843.118	29.722
843.141	29.699
843.164	29.619
843.188	29.671
843.211	29.736
843.234	29.717
843.257	29.745
843.281	29.731
843.304	29.731
843.327	29.768
843.350	29.661
843.374	29.689
843.397	29.759
843.420	29.777
843.443	29.703
843.466	29.741
843.490	29.657
843.513	29.750
843.536	29.736
843.559	29.699
843.582	29.680
843.606	29.759
843.629	29.764
843.652	29.731
843.675	29.703
843.698	29.722
843.721	29.722
843.745	29.680
843.768	29.666
843.791	29.750
843.814	29.764
843.837	29.764
843.860	29.791
843.883	29.741
843.907	29.764
843.930	29.722
843.953	29.699
843.976	29.661
843.999	29.699
844.022	29.759
844.045	29.703
844.069	29.694
844.092	29.713
844.115	29.703
844.138	29.699
844.161	29.736
844.184	29.736
844.207	29.713
844.230	29.741
844.253	29.628
844.276	29.750
844.300	29.703
844.323	29.722
844.346	29.694
844.369	29.773
844.392	29.680
844.415	29.727
844.438	29.750
844.461	29.759
844.484	29.713
844.507	29.727
844.530	29.671
844.553	29.736
844.576	29.782
844.599	29.699
844.622	29.768
844.645	29.768
844.668	29.750
844.692	29.727
844.715	29.764
844.738	29.680
844.761	29.717
844.784	29.777
844.807	29.703
844.830	29.727
844.853	29.717
844.876	29.814
844.899	29.722
844.922	29.717
844.945	29.823
844.968	29.727
844.991	29.708
845.014	29.680
845.037	29.745
845.060	29.764
845.083	29.736
845.105	29.703
845.128	29.713
845.151	29.713
845.174	29.759
845.197	29.703
845.220	29.754
845.243	29.708
845.266	29.736
845.289	29.731
845.312	29.759
845.335	29.773
845.358	29.713
845.381	29.722
845.404	29.666
845.427	29.731
845.450	29.731
845.473	29.745
845.496	29.708
845.518	29.750
845.541	29.628
845.564	29.633
845.587	29.699
845.610	29.727
845.633	29.773
845.656	29.768
845.679	29.722
845.702	29.731
845.724	29.754
845.747	29.773
845.770	29.741
845.793	29.741
845.816	29.671
845.839	29.741
845.862	29.750
845.885	29.745
845.907	29.722
845.930	29.717
845.953	29.661
845.976	29.694
845.999	29.694
846.022	29.699
846.045	29.736
846.067	29.708
846.090	29.703
846.113	29.713
846.136	29.727
846.159	29.708
846.182	29.741
846.204	29.680
846.227	29.657
846.250	29.759
846.273	29.717
846.296	29.754
846.318	29.745
846.341	29.791
846.364	29.764
846.387	29.768
846.410	29.680
846.432	29.694
846.455	29.745
846.478	29.731
846.501	29.736
846.523	29.694
846.546	29.671
846.569	29.754
846.592	29.717
846.614	29.754
846.637	29.652
846.660	29.745
846.683	29.722
846.705	29.675
846.728	29.768
846.751	29.731
846.774	29.850
846.796	29.978
846.819	30.318
846.842	30.607
846.865	30.195
846.887	29.961
846.910	29.832
846.933	29.727
846.955	29.782
846.978	29.800
847.001	29.800
847.023	30.133
847.046	31.129
847.069	32.320
847.092	33.602
847.114	35.080
847.137	35.966
847.160	36.629
847.182	37.169
847.205	37.190
847.228	36.344
847.250	34.876
847.273	33.700
847.296	32.577
847.318	31.392
847.341	30.434
847.364	30.338
847.386	31.021
847.409	32.235
847.432	33.556
847.454	34.930
847.477	36.276
847.499	36.994
847.522	36.566
847.545	35.289
847.567	34.059
847.590	32.967
847.613	31.685
847.635	30.481
847.658	29.991
847.680	29.978
847.703	30.145
847.726	31.021
847.748	31.824
847.771	31.951
847.793	30.588
847.816	29.930
847.839	29.805
847.861	29.727
847.884	29.786
847.906	29.694
847.929	29.717
847.951	29.759
847.974	29.782
847.996	29.809
848.019	29.750
848.042	29.708
848.064	29.666
848.087	29.685
848.109	29.689
848.132	29.703
848.154	29.745
848.177	29.657
848.199	29.759
848.222	29.643
848.244	29.731
848.267	29.736
848.289	29.786
848.312	29.777
848.334	29.699
848.357	29.689
848.379	29.727
848.402	29.731
848.424	29.736
848.447	29.745
848.469	29.689
848.492	29.699
848.514	29.764
848.537	29.750
848.559	29.727
848.582	29.713
848.604	29.685
848.627	29.652
848.649	29.736
848.672	29.754
848.694	29.750
848.717	29.685
848.739	29.647
848.761	29.731
848.784	29.685
848.806	29.685
848.829	29.699
848.851	29.786
848.874	29.791
848.896	29.694
848.919	29.671
848.941	29.759
848.963	29.805
848.986	29.703
849.008	29.657
849.031	29.699
849.053	29.694
849.075	29.694
849.098	29.657
849.120	29.671
849.143	29.741
849.165	29.689
849.187	29.713
849.210	29.647
849.232	29.671
849.254	29.685
849.277	29.727
849.299	29.694
849.322	29.768
849.344	29.750
849.366	29.754
849.389	29.671
849.411	29.759
849.433	29.814
849.456	29.768
849.478	29.722
849.500	29.713
849.523	29.689
849.545	29.722
849.567	29.703
849.590	29.791
849.612	29.666
849.634	29.731
849.657	29.717
849.679	29.736
849.701	29.633
849.724	29.764
849.746	29.703
849.768	29.703
849.791	29.759
849.813	29.689
849.835	29.791
849.857	29.750
849.880	29.759
849.902	29.768
849.924	29.731
849.946	29.699
849.969	29.745
849.991	29.777
850.013	29.708
850.036	29.773
850.058	29.773
850.080	29.736
850.102	29.768
850.125	29.699
850.147	29.643
850.169	29.675
850.191	29.745
850.214	29.708
850.236	29.759
850.258	29.759
850.280	29.699
850.302	29.666
850.325	29.675
850.347	29.643
850.369	29.689
850.391	29.731
850.414	29.750
850.436	29.809
850.458	29.741
850.480	29.741
850.502	29.694
850.524	29.717
850.547	29.782
850.569	29.764
850.591	29.680
850.613	29.768
850.635	29.736
850.658	29.661
850.680	29.786
850.702	29.736
850.724	29.731
850.746	29.741
850.768	29.800
850.791	29.685
850.813	29.609
850.835	29.745
850.857	29.759
850.879	29.736
850.901	29.675
850.923	29.722
850.945	29.694
850.968	29.741
850.990	29.786
851.012	29.795
851.034	29.754
851.056	29.731
851.078	29.750
851.100	29.782
851.122	29.722
851.144	29.689
851.167	29.736
851.189	29.754
851.211	29.764
851.233	29.717
851.255	29.703
851.277	29.754
851.299	29.836
851.321	29.759
851.343	29.694
851.365	29.689
851.387	29.809
851.409	29.764
851.431	29.717
851.453	29.764
851.476	29.731
851.498	29.717
851.520	29.786
851.542	29.643
851.564	29.708
851.586	29.736
851.608	29.795
851.630	29.736
851.652	29.680
851.674	29.680
851.696	29.731
851.718	29.750
851.740	29.708
851.762	29.773
851.784	29.741
851.806	29.703
851.828	29.795
851.850	29.694
851.872	29.722
851.894	29.736
851.916	29.717
851.938	29.685
851.960	29.736
851.982	29.727
852.004	29.680
852.026	29.741
852.048	29.764
852.070	29.754
852.092	29.786
852.114	29.731
852.135	29.800
852.157	29.841
852.179	29.731
852.201	29.736
