Wavelength (nm)	Rel. spec. intensity (dB)
849.008	29.736
849.031	29.777
849.053	29.745
849.075	29.708
849.098	29.777
849.120	29.750
849.143	29.722
849.165	29.823
849.187	29.768
849.210	29.736
849.232	29.850
849.254	29.722
849.277	29.764
849.299	29.814
849.322	29.759
849.344	29.827
849.366	29.786
849.389	29.777
849.411	29.863
849.433	29.777
849.456	29.703
849.478	29.713
849.500	29.703
849.523	29.722
849.545	29.791
849.567	29.809
849.590	29.727
849.612	29.750
849.634	29.809
849.657	29.750
849.679	29.745
849.701	29.795
849.724	29.764
849.746	29.759
849.768	29.680
849.791	29.764
849.813	29.805
849.835	29.809
849.857	29.777
849.880	29.800
849.902	29.745
849.924	29.777
849.946	29.741
849.969	29.814
849.991	29.731
850.013	29.689
850.036	29.741
850.058	29.832
850.080	29.841
850.102	29.832
850.125	29.827
850.147	29.768
850.169	29.768
850.191	29.777
850.214	29.773
850.236	29.759
850.258	29.823
850.280	29.773
850.302	29.814
850.325	29.800
850.347	29.745
850.369	29.782
850.391	29.745
850.414	29.741
850.436	29.800
850.458	29.777
850.480	29.841
850.502	29.823
850.524	29.791
850.547	29.768
850.569	29.777
850.591	29.823
850.613	29.791
850.635	29.805
850.658	29.795
850.680	29.827
850.702	29.759
850.724	29.731
850.746	29.685
850.768	29.722
850.791	29.768
850.813	29.805
850.835	29.850
850.857	29.791
850.879	29.782
850.901	29.777
850.923	29.782
850.945	29.768
850.968	29.750
850.990	29.717
851.012	29.745
851.034	29.722
851.056	29.768
851.078	29.795
851.100	29.768
851.122	29.759
851.144	29.795
851.167	29.773
851.189	29.750
851.211	29.768
851.233	29.791
851.255	29.736
851.277	29.773
851.299	29.800
851.321	29.786
851.343	29.731
851.365	29.708
851.387	29.754
851.409	29.814
851.431	29.745
851.453	29.745
851.476	29.782
851.498	29.800
851.520	29.841
851.542	29.782
851.564	29.823
851.586	29.741
851.608	29.736
851.630	29.666
851.652	29.722
851.674	29.713
851.696	29.754
851.718	29.800
851.740	29.800
851.762	29.850
851.784	29.764
851.806	29.768
851.828	29.791
851.850	29.773
851.872	29.759
851.894	29.800
851.916	29.768
851.938	29.741
851.960	29.759
851.982	29.750
852.004	29.786
852.026	29.795
852.048	29.782
852.070	29.791
852.092	29.782
852.114	29.768
852.135	29.795
852.157	29.805
852.179	29.727
852.201	29.745
852.223	29.764
852.245	29.750
852.267	29.754
852.289	29.745
852.311	29.795
852.333	29.773
852.355	29.727
852.377	29.759
852.399	29.741
852.421	29.699
852.442	29.722
852.464	29.773
852.486	29.782
852.508	29.736
852.530	29.759
852.552	29.745
852.574	29.750
852.596	29.727
852.618	29.764
852.639	29.768
852.661	29.800
852.683	29.754
852.705	29.717
852.727	29.717
852.749	29.727
852.771	29.731
852.792	29.805
852.814	29.795
852.836	29.805
852.858	29.731
852.880	29.722
852.902	29.777
852.924	29.699
852.945	29.786
852.967	29.786
852.989	29.768
853.011	29.773
853.033	29.750
853.055	29.731
853.076	29.736
853.098	29.773
853.120	29.777
853.142	29.777
853.164	29.741
853.185	29.750
853.207	29.795
853.229	29.782
853.251	29.741
853.272	29.791
853.294	29.759
853.316	29.745
853.338	29.777
853.360	29.777
853.381	29.777
853.403	29.685
853.425	29.736
853.447	29.809
853.468	29.745
853.490	29.773
853.512	29.773
853.534	29.736
853.555	29.814
853.577	29.823
853.599	29.754
853.620	29.745
853.642	29.773
853.664	29.832
853.686	29.722
853.707	29.800
853.729	29.745
853.751	29.795
853.773	29.759
853.794	29.745
853.816	29.736
853.838	29.717
853.859	29.727
853.881	29.795
853.903	30.133
853.924	31.086
853.946	32.274
853.968	33.038
853.989	33.568
854.011	33.216
854.033	32.289
854.054	31.212
854.076	30.338
854.098	30.004
854.119	29.961
854.141	29.832
854.163	29.800
854.184	29.764
854.206	29.754
854.228	29.736
854.249	29.754
854.271	29.708
854.292	29.791
854.314	29.827
854.336	29.685
854.357	29.731
854.379	29.800
854.401	29.777
854.422	29.750
854.444	29.694
854.465	29.795
854.487	29.773
854.509	29.818
854.530	29.773
854.552	29.782
854.573	29.791
854.595	29.745
854.617	29.777
854.638	29.823
854.660	29.759
854.681	29.845
854.703	29.777
854.724	29.786
854.746	29.750
854.767	29.754
854.789	29.731
854.811	29.795
854.832	29.764
854.854	29.805
854.875	29.814
854.897	29.777
854.918	29.827
854.940	29.699
854.961	29.759
854.983	29.800
855.004	29.759
855.026	29.795
855.047	29.694
855.069	29.841
855.090	29.832
855.112	29.805
855.133	29.823
855.155	29.782
855.176	29.795
855.198	29.764
855.219	29.791
855.241	29.745
855.262	29.800
855.284	29.818
855.305	29.782
855.327	29.786
855.348	29.694
855.370	29.713
855.391	29.809
855.413	29.773
855.434	29.657
855.456	29.699
855.477	29.814
855.498	29.754
855.520	29.745
855.541	29.786
855.563	29.717
855.584	29.764
855.606	29.727
855.627	29.814
855.648	29.713
855.670	29.800
855.691	29.773
855.713	29.754
855.734	29.741
855.755	29.708
855.777	29.859
855.798	29.736
855.820	29.768
855.841	29.717
855.862	29.727
855.884	29.731
855.905	29.750
855.927	29.791
855.948	29.736
855.969	29.809
855.991	29.713
856.012	29.786
856.033	29.764
856.055	29.750
856.076	29.722
856.098	29.713
856.119	29.768
856.140	29.777
856.162	29.713
856.183	29.827
856.204	29.832
856.226	29.791
856.247	29.745
856.268	29.795
856.290	29.814
856.311	29.777
856.332	29.731
856.354	29.750
856.375	29.717
856.396	29.731
856.417	29.773
856.439	29.809
856.460	29.713
856.481	29.786
856.503	29.727
856.524	29.754
856.545	29.741
856.566	29.809
856.588	29.791
856.609	29.791
856.630	29.823
856.652	29.863
856.673	29.795
856.694	29.832
856.715	29.805
856.737	29.773
856.758	29.791
856.779	29.795
856.800	29.786
856.822	29.773
856.843	29.745
856.864	29.745
856.885	29.731
856.907	29.750
856.928	29.782
856.949	29.782
856.970	29.741
856.991	29.671
857.013	29.764
857.034	29.814
857.055	29.741
857.076	29.841
857.097	29.809
857.119	29.764
857.140	29.727
857.161	29.809
857.182	29.699
857.203	29.680
857.225	29.754
857.246	29.827
857.267	29.759
857.288	29.713
857.309	29.754
857.330	29.832
857.352	29.791
857.373	29.764
857.394	29.773
857.415	29.773
857.436	29.736
857.457	29.791
857.479	29.754
857.500	29.703
857.521	29.717
857.542	29.832
857.563	29.845
857.584	29.786
857.605	29.736
857.626	29.750
857.648	29.745
857.669	29.782
857.690	29.750
857.711	29.777
857.732	29.854
857.753	29.782
857.774	29.759
857.795	29.671
857.816	29.736
857.837	29.750
857.859	29.717
857.880	29.795
857.901	29.764
857.922	29.841
857.943	29.745
857.964	29.777
857.985	29.786
858.006	29.731
858.027	29.731
858.048	29.777
858.069	29.800
858.090	29.782
858.111	29.694
858.132	29.717
858.153	29.736
858.174	29.782
858.195	29.791
858.216	29.863
858.237	29.800
858.258	29.777
858.279	29.773
858.300	29.764
858.321	29.750
858.342	29.782
858.363	29.699
858.384	29.694
858.406	29.777
858.426	29.768
858.447	29.818
858.468	29.754
858.489	29.754
858.510	29.736
858.531	29.777
858.552	29.859
858.573	29.741
858.594	29.703
858.615	29.680
858.636	29.736
858.657	29.750
858.678	29.722
858.699	29.791
858.720	29.759
858.741	29.827
858.762	29.782
858.783	29.827
858.804	29.689
858.825	29.764
858.846	29.814
858.867	29.791
858.888	29.741
858.908	29.713
858.929	29.777
858.950	29.750
858.971	29.777
