Wavelength (nm)	Rel. spec. intensity (dB)
848.672	29.699
848.694	29.689
848.717	29.708
848.739	29.694
848.761	29.722
848.784	29.823
848.806	29.827
848.829	29.773
848.851	29.727
848.874	29.713
848.896	29.708
848.919	29.741
848.941	29.708
848.963	29.754
848.986	29.666
849.008	29.777
849.031	29.736
849.053	29.777
849.075	29.827
849.098	29.759
849.120	29.754
849.143	29.647
849.165	29.699
849.187	29.754
849.210	29.795
849.232	29.750
849.254	29.786
849.277	29.713
849.299	29.786
849.322	29.768
849.344	29.722
849.366	29.731
849.389	29.795
849.411	29.773
849.433	29.750
849.456	29.845
849.478	29.736
849.500	29.795
849.523	29.805
849.545	29.741
849.567	29.736
849.590	29.736
849.612	29.750
849.634	29.814
849.657	29.731
849.679	29.809
849.701	29.782
849.724	29.703
849.746	29.699
849.768	29.685
849.791	29.791
849.813	29.759
849.835	29.694
849.857	29.741
849.880	29.741
849.902	29.759
849.924	29.768
849.946	29.777
849.969	29.717
849.991	29.703
850.013	29.727
850.036	29.741
850.058	29.800
850.080	29.805
850.102	29.782
850.125	29.722
850.147	29.773
850.169	29.745
850.191	29.741
850.214	29.754
850.236	29.759
850.258	29.786
850.280	29.741
850.302	29.741
850.325	29.708
850.347	29.727
850.369	29.791
850.391	29.800
850.414	29.736
850.436	29.731
850.458	29.703
850.480	29.666
850.502	29.647
850.524	29.703
850.547	29.736
850.569	29.750
850.591	29.795
850.613	29.827
850.635	29.661
850.658	29.694
850.680	29.722
850.702	29.694
850.724	29.727
850.746	29.786
850.768	29.675
850.791	29.722
850.813	29.708
850.835	29.680
850.857	29.703
850.879	29.786
850.901	29.685
850.923	29.717
850.945	29.717
850.968	29.671
850.990	29.713
851.012	29.805
851.034	29.731
851.056	29.800
851.078	29.750
851.100	29.741
851.122	29.754
851.144	29.800
851.167	29.768
851.189	29.754
851.211	29.689
851.233	29.666
851.255	29.773
851.277	29.722
851.299	29.745
851.321	29.777
851.343	29.754
851.365	29.708
851.387	29.836
851.409	29.759
851.431	29.694
851.453	29.764
851.476	29.713
851.498	29.736
851.520	29.685
851.542	29.694
851.564	29.713
851.586	29.666
851.608	29.699
851.630	29.773
851.652	29.754
851.674	29.754
851.696	29.764
851.718	29.805
851.740	29.699
851.762	29.777
851.784	29.741
851.806	29.717
851.828	29.685
851.850	29.754
851.872	29.768
851.894	29.685
851.916	29.722
851.938	29.827
851.960	29.717
851.982	29.773
852.004	29.745
852.026	29.754
852.048	29.759
852.070	29.782
852.092	29.703
852.114	29.722
852.135	29.791
852.157	29.786
852.179	29.795
852.201	29.694
852.223	29.671
852.245	29.717
852.267	29.689
852.289	29.736
852.311	29.675
852.333	29.754
852.355	29.699
852.377	29.736
852.399	29.764
852.421	29.741
852.442	29.680
852.464	29.717
852.486	29.823
852.508	29.741
852.530	29.647
852.552	29.754
852.574	29.741
852.596	29.699
852.618	29.741
852.639	29.745
852.661	29.768
852.683	29.827
852.705	29.671
852.727	29.768
852.749	29.727
852.771	29.717
852.792	29.685
852.814	29.713
852.836	29.750
852.858	29.717
852.880	29.754
852.902	29.809
852.924	29.745
852.945	29.805
852.967	29.773
852.989	29.703
853.011	29.671
853.033	29.750
853.055	29.722
853.076	29.754
853.098	29.800
853.120	29.764
853.142	29.727
853.164	29.708
853.185	29.805
853.207	29.722
853.229	29.703
853.251	29.791
853.272	29.671
853.294	29.731
853.316	29.754
853.338	29.750
853.360	29.722
853.381	29.754
853.403	29.717
853.425	29.754
853.447	29.731
853.468	29.791
853.490	29.750
853.512	29.764
853.534	30.082
853.555	30.878
853.577	32.003
853.599	33.290
853.620	34.542
853.642	35.335
853.664	35.383
853.686	34.515
853.707	33.547
853.729	32.477
853.751	31.339
853.773	30.390
853.794	29.974
853.816	29.836
853.838	29.800
853.859	29.782
853.881	29.836
853.903	29.854
853.924	29.777
853.946	29.827
853.968	29.768
853.989	29.836
854.011	29.754
854.033	29.759
854.054	29.759
854.076	29.795
854.098	29.773
854.119	29.754
854.141	29.777
854.163	29.795
854.184	29.754
854.206	29.741
854.228	29.685
854.249	29.795
854.271	29.786
854.292	29.777
854.314	29.736
854.336	29.731
854.357	29.768
854.379	29.727
854.401	29.786
854.422	29.814
854.444	29.805
854.465	29.699
854.487	29.713
854.509	29.652
854.530	29.795
854.552	29.703
854.573	29.741
854.595	29.736
854.617	29.727
854.638	29.750
854.660	29.731
854.681	29.777
854.703	29.786
854.724	29.782
854.746	29.764
854.767	29.818
854.789	29.764
854.811	29.727
854.832	29.759
854.854	29.703
854.875	29.717
854.897	29.759
854.918	29.754
854.940	29.854
854.961	29.764
854.983	29.809
855.004	29.777
855.026	29.713
855.047	29.818
855.069	29.764
855.090	29.750
855.112	29.722
855.133	29.699
855.155	29.759
855.176	29.754
855.198	29.722
855.219	29.731
855.241	29.694
855.262	29.699
855.284	29.685
855.305	29.805
855.327	29.741
855.348	29.699
855.370	29.694
855.391	29.823
855.413	29.727
855.434	29.736
855.456	29.708
855.477	29.754
855.498	29.759
855.520	29.736
855.541	29.786
855.563	29.754
855.584	29.791
855.606	29.689
855.627	29.680
855.648	29.754
855.670	29.647
855.691	29.717
855.713	29.694
855.734	29.717
855.755	29.694
855.777	29.800
855.798	29.759
855.820	29.717
855.841	29.722
855.862	29.713
855.884	29.699
855.905	29.675
855.927	29.764
855.948	29.741
855.969	29.768
855.991	29.754
856.012	29.694
856.033	29.786
856.055	29.717
856.076	29.736
856.098	29.800
856.119	29.708
856.140	29.814
856.162	29.708
856.183	29.741
856.204	29.773
856.226	29.638
856.247	29.759
856.268	29.800
856.290	29.768
856.311	29.703
856.332	29.759
856.354	29.731
856.375	29.759
856.396	29.736
856.417	29.713
856.439	29.745
856.460	29.768
856.481	29.764
856.503	29.736
856.524	29.736
856.545	29.786
856.566	29.717
856.588	29.741
856.609	29.741
856.630	29.777
856.652	29.795
856.673	29.786
856.694	29.773
856.715	29.777
856.737	29.759
856.758	29.699
856.779	29.722
856.800	29.777
856.822	29.768
856.843	29.805
856.864	29.809
856.885	29.722
856.907	29.791
856.928	29.703
856.949	29.759
856.970	29.773
856.991	29.777
857.013	29.777
857.034	29.768
857.055	29.754
857.076	29.754
857.097	29.731
857.119	29.750
857.140	29.643
857.161	29.731
857.182	29.768
857.203	29.680
857.225	29.727
857.246	29.773
857.267	29.722
857.288	29.699
857.309	29.782
857.330	29.703
857.352	29.643
857.373	29.745
857.394	29.713
857.415	29.727
857.436	29.786
857.457	29.791
857.479	29.736
857.500	29.727
857.521	29.717
857.542	29.850
857.563	29.777
857.584	29.777
857.605	29.736
857.626	29.750
857.648	29.741
857.669	29.764
857.690	29.731
857.711	29.745
857.732	29.736
857.753	29.773
857.774	29.795
857.795	29.759
857.816	29.773
857.837	29.823
857.859	29.773
857.880	29.795
857.901	29.841
857.922	29.823
857.943	29.727
857.964	29.703
857.985	29.713
858.006	29.791
858.027	29.736
858.048	29.661
858.069	29.795
858.090	29.768
858.111	29.782
858.132	29.777
858.153	29.675
858.174	29.754
858.195	29.754
858.216	29.717
858.237	29.759
858.258	29.759
858.279	29.685
858.300	29.800
858.321	29.731
858.342	29.800
858.363	29.713
858.384	29.713
858.406	29.782
858.426	29.745
858.447	29.731
858.468	29.764
858.489	29.768
858.510	29.786
858.531	29.647
858.552	29.713
858.573	29.722
858.594	29.713
858.615	29.694
858.636	29.680
858.657	29.708
