Wavelength (nm)	Rel. spec. intensity (dB)
850.214	29.727
850.236	29.694
850.258	29.722
850.280	29.713
850.302	29.814
850.325	29.736
850.347	29.805
850.369	29.731
850.391	29.777
850.414	29.768
850.436	29.699
850.458	29.661
850.480	29.731
850.502	29.699
850.524	29.768
850.547	29.827
850.569	29.786
850.591	29.741
850.613	29.750
850.635	29.727
850.658	29.768
850.680	29.795
850.702	29.777
850.724	29.703
850.746	29.699
850.768	29.703
850.791	29.814
850.813	29.731
850.835	29.685
850.857	29.818
850.879	29.768
850.901	29.805
850.923	29.809
850.945	29.722
850.968	29.795
850.990	29.699
851.012	29.736
851.034	29.731
851.056	29.703
851.078	29.827
851.100	29.745
851.122	29.722
851.144	29.773
851.167	29.722
851.189	29.818
851.211	29.786
851.233	29.768
851.255	29.809
851.277	29.731
851.299	29.786
851.321	29.727
851.343	29.773
851.365	29.722
851.387	29.717
851.409	29.722
851.431	29.722
851.453	29.657
851.476	29.750
851.498	29.759
851.520	29.768
851.542	29.736
851.564	29.773
851.586	29.764
851.608	29.777
851.630	29.827
851.652	29.736
851.674	29.745
851.696	29.754
851.718	29.754
851.740	29.773
851.762	29.782
851.784	29.741
851.806	29.685
851.828	29.809
851.850	29.773
851.872	29.736
851.894	29.736
851.916	29.791
851.938	29.805
851.960	29.694
851.982	29.759
852.004	29.754
852.026	29.703
852.048	29.717
852.070	29.708
852.092	29.736
852.114	29.722
852.135	29.773
852.157	29.708
852.179	29.694
852.201	29.745
852.223	29.750
852.245	29.703
852.267	29.791
852.289	29.773
852.311	29.754
852.333	29.713
852.355	29.805
852.377	29.773
852.399	29.708
852.421	29.764
852.442	29.773
852.464	29.764
852.486	29.773
852.508	29.731
852.530	29.727
852.552	29.694
852.574	29.759
852.596	29.827
852.618	29.703
852.639	29.854
852.661	29.703
852.683	29.666
852.705	29.722
852.727	29.759
852.749	29.741
852.771	29.782
852.792	29.786
852.814	29.754
852.836	29.754
852.858	29.671
852.880	29.764
852.902	29.717
852.924	29.791
852.945	29.745
852.967	29.764
852.989	29.759
853.011	29.736
853.033	29.675
853.055	29.680
853.076	29.759
853.098	29.717
853.120	29.750
853.142	29.745
853.164	29.750
853.185	29.741
853.207	29.736
853.229	29.782
853.251	29.768
853.272	29.786
853.294	29.768
853.316	29.809
853.338	29.722
853.360	29.699
853.381	29.782
853.403	29.694
853.425	29.773
853.447	29.699
853.468	29.722
853.490	29.694
853.512	29.773
853.534	29.818
853.555	29.800
853.577	29.741
853.599	29.773
853.620	29.786
853.642	29.722
853.664	29.666
853.686	29.791
853.707	29.727
853.729	29.782
853.751	29.694
853.773	29.717
853.794	29.805
853.816	29.786
853.838	29.754
853.859	29.722
853.881	29.786
853.903	29.768
853.924	29.675
853.946	29.782
853.968	29.764
853.989	29.745
854.011	29.717
854.033	29.814
854.054	29.795
854.076	29.800
854.098	29.809
854.119	29.768
854.141	29.731
854.163	29.717
854.184	29.764
854.206	29.736
854.228	29.777
854.249	29.731
854.271	29.805
854.292	29.814
854.314	29.694
854.336	29.727
854.357	29.731
854.379	29.736
854.401	29.759
854.422	29.777
854.444	29.736
854.465	29.827
854.487	29.736
854.509	29.666
854.530	29.680
854.552	29.741
854.573	29.759
854.595	29.809
854.617	29.773
854.638	29.818
854.660	29.795
854.681	29.836
854.703	29.768
854.724	29.777
854.746	29.736
854.767	29.795
854.789	29.800
854.811	29.809
854.832	29.863
854.854	29.777
854.875	29.699
854.897	29.809
854.918	29.736
854.940	29.764
854.961	29.795
854.983	29.759
855.004	29.759
855.026	29.736
855.047	29.731
855.069	29.777
855.090	29.899
855.112	30.261
855.133	30.763
855.155	31.380
855.176	32.092
855.198	32.438
855.219	32.378
855.241	31.399
855.262	30.237
855.284	29.921
855.305	29.786
855.327	29.764
855.348	29.750
855.370	29.759
855.391	29.805
855.413	29.841
855.434	29.827
855.456	29.657
855.477	29.759
855.498	29.818
855.520	29.791
855.541	29.754
855.563	29.777
855.584	29.782
855.606	29.745
855.627	29.800
855.648	29.736
855.670	29.745
855.691	29.699
855.713	29.750
855.734	29.750
855.755	29.961
855.777	30.107
855.798	30.241
855.820	30.162
855.841	29.996
855.862	29.877
855.884	29.836
855.905	29.777
855.927	29.777
855.948	29.703
855.969	29.791
855.991	29.694
856.012	29.827
856.033	29.818
856.055	29.764
856.076	29.750
856.098	29.777
856.119	29.703
856.140	29.741
856.162	29.750
856.183	29.777
856.204	29.786
856.226	29.745
856.247	29.759
856.268	29.754
856.290	29.745
856.311	29.800
856.332	29.800
856.354	29.750
856.375	29.727
856.396	29.727
856.417	29.685
856.439	29.717
856.460	29.827
856.481	29.736
856.503	29.764
856.524	29.680
856.545	29.661
856.566	29.727
856.588	29.759
856.609	29.741
856.630	29.800
856.652	29.868
856.673	29.759
856.694	29.805
856.715	29.708
856.737	29.717
856.758	29.800
856.779	29.768
856.800	29.750
856.822	29.708
856.843	29.832
856.864	29.713
856.885	29.741
856.907	29.713
856.928	29.736
856.949	29.699
856.970	29.759
856.991	29.759
857.013	29.680
857.034	29.768
857.055	29.722
857.076	29.750
857.097	29.741
857.119	29.791
857.140	29.759
857.161	29.841
857.182	29.773
857.203	29.814
857.225	29.685
857.246	29.795
857.267	29.736
857.288	29.791
857.309	29.750
857.330	29.699
857.352	29.741
857.373	29.689
857.394	29.754
857.415	29.768
857.436	29.722
857.457	29.638
857.479	29.736
857.500	29.750
857.521	29.823
857.542	29.745
857.563	29.731
857.584	29.800
857.605	29.675
857.626	29.727
857.648	29.736
857.669	29.800
857.690	29.745
857.711	29.782
857.732	29.759
857.753	29.795
857.774	29.750
857.795	29.809
857.816	29.786
857.837	29.750
857.859	29.727
857.880	29.759
857.901	29.823
857.922	29.745
857.943	29.666
857.964	29.727
857.985	29.722
858.006	29.722
858.027	29.809
858.048	29.731
858.069	29.759
858.090	29.736
858.111	29.764
858.132	29.741
858.153	29.782
858.174	29.764
858.195	29.773
858.216	29.805
858.237	29.736
858.258	29.741
858.279	29.750
858.300	29.736
858.321	29.713
858.342	29.713
858.363	29.694
858.384	29.722
858.406	29.713
858.426	29.731
858.447	29.717
858.468	29.657
858.489	29.754
858.510	29.782
858.531	29.694
858.552	29.786
858.573	29.754
858.594	29.694
858.615	29.741
858.636	29.759
858.657	29.782
858.678	29.773
858.699	29.736
858.720	29.680
858.741	29.736
858.762	29.786
858.783	29.722
858.804	29.745
858.825	29.680
858.846	29.754
858.867	29.750
858.888	29.768
858.908	29.809
858.929	29.717
858.950	29.717
858.971	29.773
858.992	29.745
859.013	29.727
859.034	29.722
859.055	29.777
859.076	29.717
859.097	29.745
859.117	29.680
859.138	29.699
859.159	29.750
859.180	29.791
859.201	29.722
859.222	29.782
859.243	29.795
859.264	29.722
859.284	29.708
859.305	29.823
859.326	29.727
859.347	29.731
859.368	29.699
859.389	29.703
859.410	29.699
859.430	29.750
859.451	29.727
859.472	29.722
859.493	29.736
859.514	29.754
859.534	29.791
859.555	29.713
859.576	29.731
859.597	29.699
859.618	29.814
859.639	29.773
859.659	29.795
859.680	29.731
859.701	29.717
859.722	29.759
859.742	29.791
859.763	29.703
859.784	29.759
859.805	29.791
859.826	29.699
859.846	29.750
859.867	29.759
859.888	29.782
859.909	29.827
859.929	29.786
859.950	29.727
859.971	29.727
859.992	29.745
860.012	29.689
860.033	29.671
860.054	29.759
860.075	29.731
860.095	29.754
860.116	29.777
860.137	29.800
860.158	29.768
860.178	29.671
