Wavelength (nm)	Rel. spec. intensity (dB)
845.473	29.703
845.496	29.827
845.518	29.805
845.541	29.754
845.564	29.754
845.587	29.782
845.610	29.722
845.633	29.722
845.656	29.708
845.679	29.689
845.702	29.731
845.724	29.764
845.747	29.675
845.770	29.717
845.793	29.652
845.816	29.791
845.839	29.818
845.862	29.832
845.885	29.717
845.907	29.754
845.930	29.764
845.953	29.661
845.976	29.750
845.999	29.768
846.022	29.754
846.045	29.731
846.067	29.731
846.090	29.764
846.113	29.786
846.136	29.754
846.159	29.741
846.182	29.675
846.204	29.745
846.227	29.768
846.250	29.786
846.273	29.768
846.296	29.750
846.318	29.703
846.341	29.722
846.364	29.773
846.387	29.745
846.410	29.764
846.432	29.827
846.455	29.805
846.478	29.750
846.501	29.777
846.523	29.750
846.546	29.786
846.569	29.657
846.592	29.652
846.614	29.795
846.637	29.818
846.660	29.759
846.683	29.689
846.705	29.754
846.728	29.782
846.751	29.800
846.774	29.703
846.796	29.727
846.819	29.741
846.842	29.754
846.865	29.727
846.887	29.689
846.910	29.768
846.933	29.791
846.955	29.777
846.978	29.764
847.001	29.791
847.023	29.836
847.046	29.768
847.069	29.680
847.092	29.736
847.114	29.809
847.137	29.731
847.160	29.736
847.182	29.689
847.205	29.717
847.228	29.689
847.250	29.736
847.273	29.809
847.296	29.782
847.318	29.666
847.341	29.703
847.364	29.661
847.386	29.703
847.409	29.759
847.432	29.666
847.454	29.600
847.477	29.777
847.499	29.809
847.522	29.694
847.545	29.722
847.567	29.713
847.590	29.731
847.613	29.805
847.635	29.685
847.658	29.759
847.680	29.805
847.703	29.750
847.726	29.759
847.748	29.750
847.771	29.727
847.793	29.754
847.816	29.741
847.839	29.745
847.861	29.768
847.884	29.759
847.906	29.671
847.929	29.703
847.951	29.768
847.974	29.731
847.996	29.708
848.019	29.818
848.042	29.777
848.064	29.745
848.087	29.731
848.109	29.750
848.132	29.773
848.154	29.777
848.177	29.731
848.199	29.841
848.222	29.795
848.244	29.717
848.267	29.773
848.289	29.841
848.312	29.685
848.334	29.699
848.357	29.814
848.379	29.745
848.402	29.750
848.424	29.777
848.447	29.736
848.469	29.741
848.492	29.773
848.514	29.768
848.537	29.759
848.559	29.741
848.582	29.661
848.604	29.791
848.627	29.759
848.649	29.759
848.672	29.768
848.694	29.703
848.717	29.699
848.739	29.703
848.761	29.750
848.784	29.764
848.806	29.768
848.829	29.764
848.851	29.703
848.874	29.661
848.896	29.750
848.919	29.713
848.941	29.680
848.963	29.741
848.986	29.759
849.008	29.764
849.031	29.764
849.053	29.694
849.075	29.703
849.098	29.759
849.120	29.727
849.143	29.689
849.165	29.699
849.187	29.841
849.210	29.717
849.232	29.786
849.254	29.717
849.277	29.741
849.299	29.722
849.322	29.703
849.344	29.800
849.366	29.795
849.389	29.713
849.411	29.800
849.433	29.832
849.456	29.754
849.478	29.727
849.500	29.754
849.523	29.703
849.545	29.736
849.567	29.727
849.590	29.814
849.612	29.717
849.634	29.741
849.657	29.736
849.679	29.777
849.701	29.750
849.724	29.722
849.746	29.717
849.768	29.699
849.791	29.694
849.813	29.708
849.835	29.722
849.857	29.754
849.880	29.754
849.902	29.759
849.924	29.754
849.946	29.661
849.969	29.661
849.991	29.773
850.013	29.727
850.036	29.791
850.058	29.741
850.080	29.703
850.102	29.736
850.125	29.759
850.147	29.741
850.169	29.750
850.191	29.750
850.214	29.782
850.236	29.731
850.258	29.759
850.280	29.652
850.302	29.791
850.325	29.814
850.347	29.736
850.369	29.952
850.391	30.813
850.414	31.787
850.436	32.586
850.458	33.587
850.480	33.389
850.502	32.222
850.524	31.526
850.547	30.546
850.569	30.043
850.591	29.809
850.613	29.722
850.635	29.773
850.658	29.814
850.680	29.689
850.702	29.689
850.724	29.764
850.746	29.786
850.768	29.694
850.791	29.731
850.813	29.750
850.835	29.708
850.857	29.731
850.879	29.736
850.901	29.754
850.923	29.731
850.945	29.764
850.968	29.694
850.990	29.750
851.012	29.795
851.034	29.750
851.056	29.754
851.078	29.768
851.100	29.727
851.122	29.722
851.144	29.708
851.167	29.727
851.189	29.722
851.211	29.818
851.233	29.845
851.255	29.791
851.277	29.777
851.299	29.745
851.321	29.727
851.343	29.786
851.365	29.768
851.387	29.768
851.409	29.823
851.431	29.850
851.453	29.689
851.476	29.736
851.498	29.754
851.520	29.745
851.542	29.745
851.564	29.782
851.586	29.731
851.608	29.722
851.630	29.717
851.652	29.741
851.674	29.745
851.696	29.731
851.718	29.736
851.740	29.708
851.762	29.800
851.784	29.786
851.806	29.764
851.828	29.754
851.850	29.736
851.872	29.773
851.894	29.750
851.916	29.805
851.938	29.722
851.960	29.694
851.982	29.675
852.004	29.685
852.026	29.736
852.048	29.727
852.070	29.782
852.092	29.731
852.114	29.809
852.135	29.736
852.157	29.708
852.179	29.750
852.201	29.827
852.223	29.768
852.245	29.777
852.267	29.750
852.289	29.754
852.311	29.809
852.333	29.777
852.355	29.791
852.377	29.795
852.399	29.805
852.421	29.722
852.442	29.708
852.464	29.722
852.486	29.722
852.508	29.736
852.530	29.685
852.552	29.699
852.574	29.800
852.596	29.736
852.618	29.750
852.639	29.791
852.661	29.872
852.683	29.773
852.705	29.722
852.727	29.809
852.749	29.827
852.771	29.722
852.792	29.805
852.814	29.782
852.836	29.823
852.858	29.759
852.880	29.699
852.902	29.754
852.924	29.836
852.945	29.764
852.967	29.750
852.989	29.736
853.011	29.671
853.033	29.764
853.055	29.722
853.076	29.671
853.098	29.750
853.120	29.717
853.142	29.731
853.164	29.685
853.185	29.791
853.207	29.727
853.229	29.722
853.251	29.699
853.272	29.703
853.294	29.786
853.316	29.768
853.338	29.764
853.360	29.675
853.381	29.741
853.403	29.745
853.425	29.745
853.447	29.832
853.468	29.768
853.490	29.777
853.512	29.777
853.534	29.680
853.555	29.722
853.577	29.736
853.599	29.731
853.620	29.773
853.642	29.685
853.664	29.764
853.686	29.759
853.707	29.703
853.729	29.736
853.751	29.786
853.773	29.786
853.794	29.727
853.816	29.759
853.838	29.745
853.859	29.699
853.881	29.694
853.903	29.717
853.924	29.685
853.946	29.731
853.968	29.699
853.989	29.786
854.011	29.795
854.033	29.814
854.054	29.713
854.076	29.694
854.098	29.722
854.119	29.699
854.141	29.731
854.163	29.745
854.184	29.750
854.206	29.768
854.228	29.754
854.249	29.759
854.271	29.773
854.292	29.680
854.314	29.703
854.336	29.661
854.357	29.680
854.379	29.736
854.401	29.717
854.422	29.777
854.444	29.773
854.465	29.750
854.487	29.768
854.509	29.750
854.530	29.768
854.552	29.713
854.573	29.786
854.595	29.745
854.617	29.782
854.638	29.827
854.660	29.773
854.681	29.795
854.703	29.754
854.724	29.773
854.746	29.773
854.767	29.736
854.789	29.685
854.811	29.722
854.832	29.791
854.854	29.814
854.875	29.713
854.897	29.827
854.918	29.727
854.940	29.750
854.961	29.795
854.983	29.841
855.004	29.750
855.026	29.736
855.047	29.708
855.069	29.703
855.090	29.764
855.112	29.713
855.133	29.754
855.155	29.717
855.176	29.713
855.198	29.836
855.219	29.680
855.241	29.741
855.262	29.759
855.284	29.713
855.305	29.805
855.327	29.754
855.348	29.703
855.370	29.786
855.391	29.754
855.413	29.759
855.434	29.750
855.456	29.708
