Wavelength (nm)	Rel. spec. intensity (dB)
845.381	29.845
845.404	29.903
845.427	29.877
845.450	29.877
845.473	29.863
845.496	29.850
845.518	29.899
845.541	29.881
845.564	29.841
845.587	29.827
845.610	29.814
845.633	29.877
845.656	29.823
845.679	29.845
845.702	29.912
845.724	29.836
845.747	29.791
845.770	29.717
845.793	29.795
845.816	29.809
845.839	29.836
845.862	29.800
845.885	29.795
845.907	29.863
845.930	29.814
845.953	29.827
845.976	29.823
845.999	29.809
846.022	29.845
846.045	29.886
846.067	29.850
846.090	29.823
846.113	29.722
846.136	29.814
846.159	29.827
846.182	29.782
846.204	29.832
846.227	29.814
846.250	29.832
846.273	29.899
846.296	29.877
846.318	29.854
846.341	29.877
846.364	29.823
846.387	29.800
846.410	29.791
846.432	29.868
846.455	29.832
846.478	29.764
846.501	29.863
846.523	29.827
846.546	29.741
846.569	29.773
846.592	29.934
846.614	29.809
846.637	29.836
846.660	29.841
846.683	29.877
846.705	29.877
846.728	29.736
846.751	29.814
846.774	29.809
846.796	29.845
846.819	29.759
846.842	29.845
846.865	29.872
846.887	29.805
846.910	29.859
846.933	29.827
846.955	29.805
846.978	29.845
847.001	29.877
847.023	29.854
847.046	29.773
847.069	29.814
847.092	29.777
847.114	29.827
847.137	29.759
847.160	29.795
847.182	29.786
847.205	29.827
847.228	29.805
847.250	29.795
847.273	29.800
847.296	29.872
847.318	29.899
847.341	29.827
847.364	29.768
847.386	29.791
847.409	29.805
847.432	29.773
847.454	29.823
847.477	29.791
847.499	29.750
847.522	29.899
847.545	29.777
847.567	29.809
847.590	29.795
847.613	29.841
847.635	29.899
847.658	29.827
847.680	29.841
847.703	29.899
847.726	29.850
847.748	29.814
847.771	29.795
847.793	29.823
847.816	29.854
847.839	29.832
847.861	29.814
847.884	29.854
847.906	29.827
847.929	29.850
847.951	29.832
847.974	29.823
847.996	29.795
848.019	29.773
848.042	29.805
848.064	29.805
848.087	29.832
848.109	29.854
848.132	29.881
848.154	29.850
848.177	29.823
848.199	29.886
848.222	29.791
848.244	29.818
848.267	29.754
848.289	29.818
848.312	29.845
848.334	29.814
848.357	29.850
848.379	29.859
848.402	29.814
848.424	29.872
848.447	29.805
848.469	29.841
848.492	29.791
848.514	29.886
848.537	29.854
848.559	29.863
848.582	29.886
848.604	29.863
848.627	29.881
848.649	29.886
848.672	29.827
848.694	29.877
848.717	29.841
848.739	29.791
848.761	29.795
848.784	29.823
848.806	29.823
848.829	29.859
848.851	29.827
848.874	29.841
848.896	29.809
848.919	29.872
848.941	29.814
848.963	29.926
848.986	29.827
849.008	29.868
849.031	29.814
849.053	29.823
849.075	29.832
849.098	29.881
849.120	29.814
849.143	29.868
849.165	29.832
849.187	29.850
849.210	29.832
849.232	29.903
849.254	29.845
849.277	29.886
849.299	29.850
849.322	29.832
849.344	29.832
849.366	29.841
849.389	29.886
849.411	29.854
849.433	29.823
849.456	29.850
849.478	29.841
849.500	29.845
849.523	29.795
849.545	29.868
849.567	29.777
849.590	29.863
849.612	29.903
849.634	29.969
849.657	30.453
849.679	31.300
849.701	32.103
849.724	33.143
849.746	34.415
849.768	35.019
849.791	34.900
849.813	35.613
849.835	36.094
849.857	36.035
849.880	36.240
849.902	35.297
849.924	33.632
849.946	32.125
849.969	30.785
849.991	30.090
850.013	30.000
850.036	30.004
850.058	29.863
850.080	29.854
850.102	29.805
850.125	29.872
850.147	29.863
850.169	29.836
850.191	29.872
850.214	29.948
850.236	30.469
850.258	31.767
850.280	32.982
850.302	34.667
850.325	36.327
850.347	37.889
850.369	38.672
850.391	38.547
850.414	37.761
850.436	35.691
850.458	34.045
850.480	32.338
850.502	30.788
850.524	30.116
850.547	30.052
850.569	30.000
850.591	29.850
850.613	29.917
850.635	29.903
850.658	29.872
850.680	29.890
850.702	29.777
850.724	29.886
850.746	29.886
850.768	29.877
850.791	29.921
850.813	30.149
850.835	30.314
850.857	29.987
850.879	29.921
850.901	29.881
850.923	29.841
850.945	29.795
850.968	29.899
850.990	29.908
851.012	29.768
851.034	29.841
851.056	29.805
851.078	29.836
851.100	29.809
851.122	29.814
851.144	29.850
851.167	29.836
851.189	29.845
851.211	29.863
851.233	29.845
851.255	29.863
851.277	29.832
851.299	29.859
851.321	29.773
851.343	29.894
851.365	29.859
851.387	29.782
851.409	29.745
851.431	29.854
851.453	29.894
851.476	29.823
851.498	29.872
851.520	29.800
851.542	29.823
851.564	29.800
851.586	29.814
851.608	29.859
851.630	29.859
851.652	29.805
851.674	29.795
851.696	29.814
851.718	29.854
851.740	29.841
851.762	29.786
851.784	29.894
851.806	29.805
851.828	29.841
851.850	29.841
851.872	29.818
851.894	29.823
851.916	29.832
851.938	29.859
851.960	29.894
851.982	29.863
852.004	29.854
852.026	29.832
852.048	29.814
852.070	29.791
852.092	29.850
852.114	29.768
852.135	29.832
852.157	29.903
852.179	29.805
852.201	29.863
852.223	29.850
852.245	29.877
852.267	29.863
852.289	29.791
852.311	29.777
852.333	29.877
852.355	29.894
852.377	29.886
852.399	29.836
852.421	29.836
852.442	29.841
852.464	29.832
852.486	29.809
852.508	29.908
852.530	29.890
852.552	29.868
852.574	29.859
852.596	29.845
852.618	29.795
852.639	29.773
852.661	29.827
852.683	29.741
852.705	29.859
852.727	29.908
852.749	29.850
852.771	29.863
852.792	29.818
852.814	29.859
852.836	29.814
852.858	29.800
852.880	29.795
852.902	29.832
852.924	29.832
852.945	29.836
852.967	29.814
852.989	29.899
853.011	29.805
853.033	29.823
853.055	29.814
853.076	29.845
853.098	29.939
853.120	29.827
853.142	29.832
853.164	29.827
853.185	29.845
853.207	29.863
853.229	29.791
853.251	29.859
853.272	29.859
853.294	29.777
853.316	29.886
853.338	29.836
853.360	29.809
853.381	29.759
853.403	29.850
853.425	29.827
853.447	29.832
853.468	29.863
853.490	29.863
853.512	29.827
853.534	29.814
853.555	29.791
853.577	29.863
853.599	29.764
853.620	29.939
853.642	29.823
853.664	29.791
853.686	29.850
853.707	29.827
853.729	29.845
853.751	29.791
853.773	29.899
853.794	29.908
853.816	29.894
853.838	29.872
853.859	29.836
853.881	29.703
853.903	29.786
853.924	29.823
853.946	29.845
853.968	29.823
853.989	29.795
854.011	29.777
854.033	29.836
854.054	29.850
854.076	29.791
854.098	29.818
854.119	29.754
854.141	29.832
854.163	29.841
854.184	29.814
854.206	29.764
854.228	29.930
854.249	29.863
854.271	29.814
854.292	29.845
854.314	29.809
854.336	29.800
854.357	29.872
854.379	29.814
854.401	29.868
854.422	29.850
854.444	29.814
854.465	29.805
854.487	29.845
854.509	29.800
854.530	29.823
854.552	29.850
854.573	29.823
854.595	29.786
854.617	29.800
854.638	29.786
854.660	29.754
854.681	29.850
854.703	29.832
854.724	29.809
854.746	29.750
854.767	29.795
854.789	29.818
854.811	29.809
854.832	29.750
854.854	29.809
854.875	29.868
854.897	29.899
854.918	29.903
854.940	29.917
854.961	29.930
854.983	29.845
855.004	29.877
855.026	29.881
855.047	29.859
855.069	29.805
855.090	29.854
855.112	29.759
855.133	29.809
855.155	29.845
855.176	29.872
855.198	29.827
855.219	29.841
855.241	29.841
855.262	29.841
855.284	29.850
855.305	29.908
855.327	29.881
855.348	29.859
