Wavelength (nm)	Rel. spec. intensity (dB)
844.622	29.823
844.645	29.777
844.668	29.736
844.692	29.759
844.715	29.791
844.738	29.768
844.761	29.777
844.784	29.814
844.807	29.786
844.830	29.736
844.853	29.809
844.876	29.800
844.899	29.791
844.922	29.745
844.945	29.768
844.968	29.791
844.991	29.795
845.014	29.736
845.037	29.759
845.060	29.731
845.083	29.741
845.105	29.722
845.128	29.661
845.151	29.777
845.174	29.736
845.197	29.777
845.220	29.689
845.243	29.754
845.266	29.764
845.289	29.773
845.312	29.768
845.335	29.773
845.358	29.741
845.381	29.768
845.404	29.773
845.427	29.764
845.450	29.731
845.473	29.750
845.496	29.777
845.518	29.795
845.541	29.750
845.564	29.754
845.587	29.791
845.610	29.795
845.633	29.736
845.656	29.777
845.679	29.741
845.702	29.741
845.724	29.768
845.747	29.745
845.770	29.699
845.793	29.731
845.816	29.699
845.839	29.717
845.862	29.699
845.885	29.782
845.907	29.832
845.930	29.764
845.953	29.768
845.976	29.699
845.999	29.777
846.022	29.773
846.045	29.741
846.067	29.809
846.090	29.886
846.113	29.832
846.136	29.791
846.159	29.805
846.182	29.818
846.204	29.777
846.227	29.708
846.250	29.886
846.273	29.750
846.296	29.689
846.318	29.786
846.341	29.759
846.364	29.809
846.387	29.731
846.410	29.764
846.432	29.809
846.455	29.717
846.478	29.759
846.501	29.814
846.523	29.832
846.546	29.805
846.569	29.777
846.592	29.741
846.614	29.736
846.637	29.764
846.660	29.759
846.683	29.713
846.705	29.652
846.728	29.699
846.751	29.741
846.774	29.731
846.796	29.814
846.819	29.727
846.842	29.717
846.865	29.741
846.887	29.694
846.910	29.689
846.933	29.736
846.955	29.795
846.978	29.791
847.001	29.727
847.023	29.768
847.046	29.777
847.069	29.745
847.092	29.708
847.114	29.741
847.137	29.777
847.160	29.768
847.182	29.708
847.205	29.661
847.228	29.614
847.250	29.647
847.273	29.750
847.296	29.741
847.318	29.800
847.341	29.782
847.364	29.727
847.386	29.773
847.409	29.795
847.432	29.786
847.454	29.722
847.477	29.754
847.499	29.722
847.522	29.713
847.545	29.731
847.567	29.727
847.590	29.703
847.613	29.768
847.635	29.699
847.658	29.827
847.680	29.809
847.703	29.805
847.726	29.791
847.748	29.786
847.771	29.745
847.793	29.736
847.816	29.750
847.839	29.708
847.861	29.694
847.884	29.754
847.906	29.786
847.929	29.759
847.951	29.727
847.974	29.773
847.996	29.795
848.019	29.777
848.042	29.754
848.064	29.786
848.087	29.805
848.109	29.854
848.132	29.823
848.154	29.750
848.177	29.754
848.199	29.786
848.222	29.708
848.244	29.699
848.267	29.657
848.289	29.823
848.312	29.768
848.334	29.754
848.357	29.814
848.379	29.809
848.402	29.759
848.424	29.805
848.447	29.731
848.469	29.832
848.492	29.727
848.514	29.722
848.537	29.773
848.559	29.890
848.582	29.754
848.604	29.731
848.627	29.782
848.649	29.791
848.672	29.832
848.694	29.827
848.717	29.800
848.739	29.680
848.761	29.827
848.784	29.809
848.806	29.827
848.829	29.768
848.851	29.777
848.874	29.791
848.896	29.814
848.919	29.703
848.941	29.736
848.963	29.773
848.986	29.809
849.008	29.731
849.031	29.731
849.053	29.694
849.075	29.777
849.098	29.764
849.120	29.741
849.143	29.708
849.165	29.717
849.187	29.736
849.210	29.777
849.232	29.754
849.254	29.741
849.277	29.736
849.299	29.741
849.322	29.750
849.344	29.750
849.366	29.689
849.389	29.814
849.411	29.745
849.433	29.791
849.456	29.722
849.478	29.759
849.500	29.741
849.523	29.764
849.545	29.777
849.567	29.685
849.590	29.782
849.612	29.939
849.634	29.745
849.657	29.791
849.679	29.727
849.701	29.722
849.724	29.777
849.746	29.791
849.768	29.800
849.791	29.814
849.813	29.814
849.835	29.814
849.857	29.795
849.880	29.754
849.902	29.782
849.924	29.727
849.946	29.795
849.969	29.800
849.991	29.731
850.013	29.773
850.036	29.717
850.058	29.759
850.080	29.777
850.102	29.759
850.125	29.773
850.147	29.754
850.169	29.786
850.191	29.773
850.214	29.768
850.236	29.768
850.258	29.741
850.280	29.717
850.302	29.805
850.325	29.773
850.347	29.786
850.369	29.805
850.391	29.777
850.414	29.754
850.436	29.773
850.458	29.782
850.480	29.786
850.502	29.795
850.524	29.750
850.547	29.814
850.569	29.731
850.591	29.722
850.613	29.814
850.635	29.768
850.658	29.827
850.680	29.800
850.702	29.750
850.724	29.768
850.746	29.703
850.768	29.736
850.791	29.754
850.813	29.727
850.835	29.717
850.857	29.657
850.879	29.782
850.901	29.786
850.923	29.717
850.945	29.809
850.968	29.717
850.990	29.741
851.012	29.782
851.034	29.759
851.056	29.768
851.078	29.791
851.100	29.777
851.122	29.759
851.144	29.745
851.167	29.750
851.189	29.759
851.211	29.736
851.233	29.713
851.255	29.722
851.277	29.759
851.299	29.759
851.321	29.736
851.343	29.745
851.365	29.750
851.387	29.827
851.409	29.805
851.431	29.750
851.453	29.800
851.476	29.736
851.498	29.764
851.520	29.759
851.542	29.741
851.564	29.818
851.586	29.818
851.608	29.795
851.630	29.795
851.652	29.750
851.674	29.759
851.696	29.731
851.718	29.764
851.740	29.768
851.762	29.768
851.784	29.773
851.806	29.800
851.828	29.750
851.850	29.814
851.872	29.800
851.894	29.827
851.916	29.759
851.938	29.841
851.960	29.750
851.982	29.773
852.004	29.777
852.026	29.750
852.048	29.713
852.070	29.768
852.092	29.759
852.114	29.713
852.135	29.754
852.157	29.800
852.179	29.736
852.201	29.717
852.223	29.703
852.245	29.731
852.267	29.745
852.289	29.791
852.311	29.786
852.333	29.782
852.355	29.722
852.377	29.759
852.399	29.731
852.421	29.795
852.442	29.764
852.464	29.800
852.486	29.832
852.508	29.759
852.530	29.745
852.552	29.759
852.574	29.759
852.596	29.727
852.618	29.836
852.639	29.717
852.661	29.699
852.683	29.741
852.705	29.736
852.727	29.717
852.749	29.750
852.771	29.859
852.792	29.741
852.814	29.754
852.836	29.805
852.858	29.795
852.880	29.773
852.902	29.722
852.924	29.717
852.945	29.768
852.967	29.768
852.989	29.791
853.011	29.786
853.033	29.736
853.055	29.795
853.076	29.809
853.098	29.818
853.120	29.872
853.142	29.750
853.164	29.717
853.185	29.694
853.207	29.777
853.229	29.809
853.251	29.791
853.272	29.699
853.294	29.827
853.316	29.741
853.338	29.777
853.360	29.727
853.381	29.759
853.403	29.809
853.425	29.786
853.447	29.717
853.468	29.795
853.490	29.777
853.512	29.782
853.534	29.823
853.555	29.795
853.577	29.699
853.599	29.727
853.620	29.868
853.642	29.759
853.664	29.805
853.686	29.741
853.707	29.823
853.729	29.736
853.751	29.741
853.773	29.827
853.794	29.759
853.816	29.717
853.838	29.768
853.859	29.731
853.881	29.699
853.903	29.708
853.924	29.768
853.946	29.850
853.968	29.791
853.989	29.764
854.011	29.841
854.033	29.745
854.054	29.791
854.076	29.863
854.098	29.759
854.119	29.827
854.141	29.699
854.163	29.773
854.184	29.805
854.206	29.818
854.228	29.741
854.249	29.713
854.271	29.805
854.292	29.722
854.314	29.717
854.336	29.795
854.357	29.759
854.379	29.750
854.401	29.773
854.422	29.717
854.444	29.741
854.465	29.699
854.487	29.713
854.509	29.689
854.530	29.791
854.552	29.741
854.573	29.800
854.595	29.805
