Wavelength (nm)	Rel. spec. intensity (dB)
851.365	29.832
851.387	29.827
851.409	29.759
851.431	29.791
851.453	29.708
851.476	29.736
851.498	29.768
851.520	29.750
851.542	29.759
851.564	29.764
851.586	29.731
851.608	29.773
851.630	29.754
851.652	29.800
851.674	29.703
851.696	29.699
851.718	29.680
851.740	29.750
851.762	29.777
851.784	29.727
851.806	29.809
851.828	29.722
851.850	29.773
851.872	29.759
851.894	29.814
851.916	29.782
851.938	29.768
851.960	29.717
851.982	29.782
852.004	29.741
852.026	29.845
852.048	29.832
852.070	29.717
852.092	29.764
852.114	29.850
852.135	29.764
852.157	29.741
852.179	29.777
852.201	29.777
852.223	29.786
852.245	29.786
852.267	29.764
852.289	29.759
852.311	29.750
852.333	29.791
852.355	29.736
852.377	29.791
852.399	29.764
852.421	29.814
852.442	29.750
852.464	29.800
852.486	29.759
852.508	29.845
852.530	29.841
852.552	29.782
852.574	29.713
852.596	29.754
852.618	29.777
852.639	29.764
852.661	29.661
852.683	29.694
852.705	29.754
852.727	29.699
852.749	29.768
852.771	29.782
852.792	29.741
852.814	29.782
852.836	29.731
852.858	29.768
852.880	29.809
852.902	29.731
852.924	29.736
852.945	29.736
852.967	29.736
852.989	29.750
853.011	29.750
853.033	29.727
853.055	29.795
853.076	29.832
853.098	29.800
853.120	29.750
853.142	29.731
853.164	29.708
853.185	29.854
853.207	29.791
853.229	29.814
853.251	29.805
853.272	29.791
853.294	29.777
853.316	29.750
853.338	29.805
853.360	29.791
853.381	29.800
853.403	29.717
853.425	29.717
853.447	29.741
853.468	29.786
853.490	29.764
853.512	29.795
853.534	29.786
853.555	29.768
853.577	29.713
853.599	29.768
853.620	29.805
853.642	29.832
853.664	29.814
853.686	29.777
853.707	29.791
853.729	29.773
853.751	29.764
853.773	29.768
853.794	29.845
853.816	29.832
853.838	29.800
853.859	29.759
853.881	29.759
853.903	29.809
853.924	29.750
853.946	29.741
853.968	29.754
853.989	29.773
854.011	29.699
854.033	29.754
854.054	29.741
854.076	29.841
854.098	29.814
854.119	29.722
854.141	29.773
854.163	29.764
854.184	29.782
854.206	29.768
854.228	29.736
854.249	29.809
854.271	29.727
854.292	29.795
854.314	29.754
854.336	29.795
854.357	29.768
854.379	29.777
854.401	29.759
854.422	29.795
854.444	29.764
854.465	29.872
854.487	29.795
854.509	29.773
854.530	29.717
854.552	29.827
854.573	29.805
854.595	29.731
854.617	29.773
854.638	29.782
854.660	29.795
854.681	29.786
854.703	29.814
854.724	29.727
854.746	29.800
854.767	29.759
854.789	29.750
854.811	29.768
854.832	29.791
854.854	29.768
854.875	29.685
854.897	29.768
854.918	29.805
854.940	29.814
854.961	29.731
854.983	29.736
855.004	29.754
855.026	29.823
855.047	29.782
855.069	29.745
855.090	29.750
855.112	29.786
855.133	29.694
855.155	29.754
855.176	29.647
855.198	29.741
855.219	29.722
855.241	29.731
855.262	29.736
855.284	29.741
855.305	29.805
855.327	29.782
855.348	29.736
855.370	29.800
855.391	29.791
855.413	29.754
855.434	29.782
855.456	29.731
855.477	29.764
855.498	29.754
855.520	29.750
855.541	29.708
855.563	29.713
855.584	29.731
855.606	29.727
855.627	29.786
855.648	29.786
855.670	29.731
855.691	29.717
855.713	29.836
855.734	29.841
855.755	29.805
855.777	29.841
855.798	29.773
855.820	29.717
855.841	29.703
855.862	29.827
855.884	29.809
855.905	29.827
855.927	29.823
855.948	29.795
855.969	29.832
855.991	29.791
856.012	29.671
856.033	29.754
856.055	29.768
856.076	29.759
856.098	29.805
856.119	29.759
856.140	29.800
856.162	29.759
856.183	29.764
856.204	29.786
856.226	29.750
856.247	29.750
856.268	29.836
856.290	29.886
856.311	29.961
856.332	30.298
856.354	30.596
856.375	30.592
856.396	30.350
856.417	29.987
856.439	29.850
856.460	29.791
856.481	29.809
856.503	29.809
856.524	29.777
856.545	29.782
856.566	29.823
856.588	29.854
856.609	29.777
856.630	29.750
856.652	29.759
856.673	29.773
856.694	29.754
856.715	29.680
856.737	29.671
856.758	29.777
856.779	29.736
856.800	29.773
856.822	29.759
856.843	29.754
856.864	29.731
856.885	29.823
856.907	29.699
856.928	29.731
856.949	29.764
856.970	29.745
856.991	29.795
857.013	29.786
857.034	29.759
857.055	29.759
857.076	29.777
857.097	29.754
857.119	29.805
857.140	29.786
857.161	29.731
857.182	29.809
857.203	29.759
857.225	29.805
857.246	29.777
857.267	29.773
857.288	29.841
857.309	29.754
857.330	29.768
857.352	29.773
857.373	29.795
857.394	29.782
857.415	29.773
857.436	29.814
857.457	29.836
857.479	29.773
857.500	29.782
857.521	29.773
857.542	29.736
857.563	29.754
857.584	29.754
857.605	29.727
857.626	29.759
857.648	29.786
857.669	29.850
857.690	29.741
857.711	29.782
857.732	29.800
857.753	29.773
857.774	29.768
857.795	29.754
857.816	29.736
857.837	29.795
857.859	29.773
857.880	29.731
857.901	29.708
857.922	29.736
857.943	29.759
857.964	29.773
857.985	29.754
858.006	29.727
858.027	29.773
858.048	29.777
858.069	29.731
858.090	29.814
858.111	29.731
858.132	29.800
858.153	29.773
858.174	29.741
858.195	29.841
858.216	29.800
858.237	29.768
858.258	29.722
858.279	29.694
858.300	29.754
858.321	29.768
858.342	29.764
858.363	29.786
858.384	29.791
858.406	29.805
858.426	29.754
858.447	29.741
858.468	29.750
858.489	29.727
858.510	29.823
858.531	29.768
858.552	29.717
858.573	29.759
858.594	29.722
858.615	29.800
858.636	29.708
858.657	29.741
858.678	29.647
858.699	29.800
858.720	29.768
858.741	29.800
858.762	29.694
858.783	29.699
858.804	29.759
858.825	29.818
858.846	29.814
858.867	29.786
858.888	29.741
858.908	29.827
858.929	29.764
858.950	29.703
858.971	29.731
858.992	29.859
859.013	29.805
859.034	29.708
859.055	29.782
859.076	29.727
859.097	29.722
859.117	29.727
859.138	29.759
859.159	29.795
859.180	29.768
859.201	29.754
859.222	29.727
859.243	29.805
859.264	29.836
859.284	29.791
859.305	29.768
859.326	29.722
859.347	29.768
859.368	29.736
859.389	29.754
859.410	29.745
859.430	29.795
859.451	29.754
859.472	29.823
859.493	29.786
859.514	29.754
859.534	29.827
859.555	29.745
859.576	29.741
859.597	29.736
859.618	29.805
859.639	29.823
859.659	29.805
859.680	29.750
859.701	29.689
859.722	29.773
859.742	29.741
859.763	29.722
859.784	29.768
859.805	29.764
859.826	29.791
859.846	29.750
859.867	29.722
859.888	29.773
859.909	29.759
859.929	29.773
859.950	29.717
859.971	29.731
859.992	29.685
860.012	29.795
860.033	29.777
860.054	29.754
860.075	29.777
860.095	29.759
860.116	29.722
860.137	29.731
860.158	29.764
860.178	29.759
860.199	29.722
860.220	29.814
860.240	29.745
860.261	29.754
860.282	29.717
860.303	29.736
860.323	29.741
860.344	29.791
860.365	29.736
860.385	29.791
860.406	29.708
860.427	29.727
860.447	29.754
860.468	29.782
860.489	29.736
860.509	29.791
860.530	29.713
860.551	29.832
860.571	29.782
860.592	29.736
860.613	29.754
860.633	29.745
860.654	29.759
860.675	29.823
860.695	29.754
860.716	29.773
860.737	29.764
860.757	29.768
860.778	29.791
860.798	29.727
860.819	29.685
860.840	29.741
860.860	29.750
860.881	29.764
860.901	29.764
860.922	29.768
860.943	29.759
860.963	29.773
860.984	29.773
861.004	29.800
861.025	29.827
861.046	29.795
861.066	29.768
861.087	29.795
861.107	29.805
861.128	29.823
861.148	29.736
861.169	29.731
861.190	29.795
861.210	29.741
861.231	29.809
861.251	29.745
861.272	29.777
861.292	29.786
861.313	29.759
861.333	29.800
