Wavelength (nm)	Rel. spec. intensity (dB)
851.387	29.750
851.409	29.800
851.431	29.777
851.453	29.809
851.476	29.722
851.498	29.750
851.520	29.768
851.542	29.786
851.564	29.657
851.586	29.777
851.608	29.777
851.630	29.791
851.652	29.717
851.674	29.745
851.696	29.750
851.718	29.809
851.740	29.764
851.762	29.791
851.784	29.800
851.806	29.814
851.828	29.814
851.850	29.680
851.872	29.768
851.894	29.814
851.916	29.736
851.938	29.863
851.960	29.795
851.982	29.750
852.004	29.814
852.026	29.699
852.048	29.773
852.070	29.661
852.092	29.791
852.114	29.741
852.135	29.713
852.157	29.745
852.179	29.800
852.201	29.703
852.223	29.786
852.245	29.809
852.267	29.814
852.289	29.809
852.311	29.768
852.333	29.814
852.355	29.782
852.377	29.845
852.399	29.675
852.421	29.717
852.442	29.736
852.464	29.777
852.486	29.708
852.508	29.717
852.530	29.791
852.552	29.777
852.574	29.786
852.596	29.713
852.618	29.699
852.639	29.727
852.661	29.731
852.683	29.814
852.705	29.657
852.727	29.731
852.749	29.795
852.771	29.791
852.792	29.754
852.814	29.805
852.836	29.809
852.858	29.832
852.880	29.694
852.902	29.731
852.924	29.689
852.945	29.827
852.967	29.782
852.989	29.694
853.011	29.759
853.033	29.791
853.055	29.823
853.076	29.768
853.098	29.764
853.120	29.773
853.142	29.643
853.164	29.671
853.185	29.782
853.207	29.768
853.229	29.717
853.251	29.863
853.272	29.759
853.294	29.773
853.316	29.786
853.338	29.699
853.360	29.717
853.381	29.727
853.403	29.805
853.425	29.795
853.447	29.741
853.468	29.754
853.490	29.699
853.512	29.768
853.534	29.754
853.555	29.805
853.577	29.754
853.599	29.759
853.620	29.786
853.642	29.809
853.664	29.699
853.686	29.750
853.707	29.703
853.729	29.722
853.751	29.708
853.773	29.786
853.794	29.809
853.816	29.786
853.838	29.777
853.859	29.818
853.881	29.708
853.903	29.791
853.924	29.832
853.946	29.777
853.968	29.777
853.989	29.791
854.011	29.773
854.033	29.777
854.054	29.773
854.076	29.764
854.098	29.795
854.119	29.759
854.141	29.680
854.163	29.768
854.184	29.689
854.206	29.745
854.228	29.768
854.249	29.782
854.271	29.786
854.292	29.777
854.314	29.759
854.336	29.745
854.357	29.818
854.379	29.805
854.401	29.731
854.422	29.675
854.444	29.741
854.465	29.827
854.487	29.759
854.509	29.727
854.530	29.717
854.552	29.689
854.573	29.745
854.595	29.827
854.617	29.795
854.638	29.768
854.660	29.773
854.681	29.727
854.703	29.791
854.724	29.782
854.746	29.786
854.767	29.791
854.789	29.694
854.811	29.750
854.832	29.791
854.854	29.800
854.875	29.777
854.897	29.777
854.918	29.836
854.940	29.764
854.961	29.759
854.983	29.786
855.004	29.791
855.026	29.722
855.047	29.764
855.069	29.722
855.090	29.814
855.112	29.809
855.133	29.777
855.155	29.782
855.176	29.741
855.198	29.773
855.219	29.764
855.241	29.703
855.262	29.777
855.284	29.731
855.305	29.750
855.327	29.841
855.348	29.773
855.370	29.818
855.391	29.736
855.413	29.741
855.434	29.809
855.456	29.827
855.477	29.703
855.498	29.736
855.520	29.836
855.541	29.800
855.563	29.791
855.584	29.731
855.606	29.736
855.627	29.671
855.648	29.773
855.670	29.827
855.691	29.768
855.713	29.745
855.734	29.805
855.755	29.741
855.777	29.800
855.798	29.795
855.820	29.703
855.841	29.800
855.862	29.759
855.884	29.777
855.905	29.759
855.927	29.814
855.948	29.795
855.969	29.800
855.991	29.841
856.012	29.841
856.033	29.768
856.055	29.773
856.076	29.823
856.098	29.791
856.119	29.773
856.140	29.777
856.162	29.809
856.183	29.832
856.204	29.786
856.226	29.805
856.247	29.736
856.268	29.827
856.290	29.877
856.311	30.111
856.332	30.334
856.354	30.603
856.375	30.607
856.396	30.228
856.417	29.974
856.439	29.899
856.460	29.782
856.481	29.795
856.503	29.795
856.524	29.754
856.545	29.699
856.566	29.764
856.588	29.791
856.609	29.736
856.630	29.713
856.652	29.759
856.673	29.759
856.694	29.832
856.715	29.805
856.737	29.741
856.758	29.708
856.779	29.764
856.800	29.786
856.822	29.832
856.843	29.777
856.864	29.805
856.885	29.713
856.907	29.764
856.928	29.823
856.949	29.768
856.970	29.703
856.991	29.791
857.013	29.713
857.034	29.694
857.055	29.741
857.076	29.717
857.097	29.841
857.119	29.809
857.140	29.827
857.161	29.708
857.182	29.764
857.203	29.741
857.225	29.754
857.246	29.741
857.267	29.745
857.288	29.827
857.309	29.764
857.330	29.814
857.352	29.680
857.373	29.717
857.394	29.671
857.415	29.736
857.436	29.777
857.457	29.754
857.479	29.777
857.500	29.699
857.521	29.759
857.542	29.791
857.563	29.736
857.584	29.841
857.605	29.795
857.626	29.741
857.648	29.773
857.669	29.759
857.690	29.750
857.711	29.708
857.732	29.841
857.753	29.782
857.774	29.731
857.795	29.786
857.816	29.791
857.837	29.768
857.859	29.717
857.880	29.750
857.901	29.773
857.922	29.741
857.943	29.745
857.964	29.777
857.985	29.791
858.006	29.717
858.027	29.671
858.048	29.736
858.069	29.768
858.090	29.759
858.111	29.731
858.132	29.854
858.153	29.827
858.174	29.754
858.195	29.764
858.216	29.805
858.237	29.727
858.258	29.731
858.279	29.809
858.300	29.791
858.321	29.795
858.342	29.699
858.363	29.782
858.384	29.689
858.406	29.736
858.426	29.759
858.447	29.727
858.468	29.791
858.489	29.805
858.510	29.800
858.531	29.736
858.552	29.717
858.573	29.754
858.594	29.782
858.615	29.628
858.636	29.791
858.657	29.773
858.678	29.809
858.699	29.791
858.720	29.754
858.741	29.722
858.762	29.859
858.783	29.745
858.804	29.713
858.825	29.741
858.846	29.759
858.867	29.703
858.888	29.791
858.908	29.823
858.929	29.800
858.950	29.685
858.971	29.777
858.992	29.745
859.013	29.741
859.034	29.786
859.055	29.845
859.076	29.805
859.097	29.731
859.117	29.777
859.138	29.827
859.159	29.722
859.180	29.750
859.201	29.759
859.222	29.773
859.243	29.713
859.264	29.773
859.284	29.768
859.305	29.786
859.326	29.722
859.347	29.717
859.368	29.722
859.389	29.741
859.410	29.768
859.430	29.741
859.451	29.750
859.472	29.727
859.493	29.768
859.514	29.768
859.534	29.773
859.555	29.800
859.576	29.736
859.597	29.741
859.618	29.750
859.639	29.795
859.659	29.717
859.680	29.731
859.701	29.764
859.722	29.759
859.742	29.759
859.763	29.736
859.784	29.805
859.805	29.805
859.826	29.759
859.846	29.782
859.867	29.773
859.888	29.773
859.909	29.736
859.929	29.754
859.950	29.722
859.971	29.805
859.992	29.736
860.012	29.750
860.033	29.805
860.054	29.750
860.075	29.805
860.095	29.768
860.116	29.736
860.137	29.768
860.158	29.741
860.178	29.777
860.199	29.750
860.220	29.768
860.240	29.741
860.261	29.713
860.282	29.805
860.303	29.832
860.323	29.754
860.344	29.809
860.365	29.727
860.385	29.773
860.406	29.741
860.427	29.773
860.447	29.791
860.468	29.754
860.489	29.773
860.509	29.777
860.530	29.722
860.551	29.745
860.571	29.786
860.592	29.795
860.613	29.814
860.633	29.694
860.654	29.836
860.675	29.754
860.695	29.759
860.716	29.741
860.737	29.703
860.757	29.768
860.778	29.699
860.798	29.722
860.819	29.731
860.840	29.795
860.860	29.768
860.881	29.741
860.901	29.750
860.922	29.754
860.943	29.741
860.963	29.823
860.984	29.754
861.004	29.786
861.025	29.713
861.046	29.809
861.066	29.764
861.087	29.782
861.107	29.708
861.128	29.717
861.148	29.666
861.169	29.694
861.190	29.841
861.210	29.703
861.231	29.694
861.251	29.736
861.272	29.741
861.292	29.768
861.313	29.736
861.333	29.850
861.354	29.708
861.374	29.786
