Wavelength (nm)	Rel. spec. intensity (dB)
846.501	29.782
846.523	29.722
846.546	29.689
846.569	29.647
846.592	29.731
846.614	29.750
846.637	29.768
846.660	29.741
846.683	29.680
846.705	29.647
846.728	29.722
846.751	29.694
846.774	29.773
846.796	29.764
846.819	29.727
846.842	29.722
846.865	29.699
846.887	29.791
846.910	29.764
846.933	29.708
846.955	29.689
846.978	29.689
847.001	29.731
847.023	29.713
847.046	29.685
847.069	29.736
847.092	29.685
847.114	29.708
847.137	29.777
847.160	29.689
847.182	29.818
847.205	29.809
847.228	29.731
847.250	29.717
847.273	29.736
847.296	29.671
847.318	29.727
847.341	29.754
847.364	29.782
847.386	29.773
847.409	29.768
847.432	29.777
847.454	29.741
847.477	29.717
847.499	29.741
847.522	29.750
847.545	29.750
847.567	29.741
847.590	29.727
847.613	29.805
847.635	29.745
847.658	29.727
847.680	29.731
847.703	29.699
847.726	29.750
847.748	29.795
847.771	29.827
847.793	29.786
847.816	29.768
847.839	29.759
847.861	29.759
847.884	29.731
847.906	29.727
847.929	29.671
847.951	29.643
847.974	29.717
847.996	29.717
848.019	29.727
848.042	29.736
848.064	29.727
848.087	29.675
848.109	29.754
848.132	29.685
848.154	29.818
848.177	29.773
848.199	29.722
848.222	29.685
848.244	29.754
848.267	29.768
848.289	29.768
848.312	29.741
848.334	29.773
848.357	29.699
848.379	29.773
848.402	29.722
848.424	29.694
848.447	29.657
848.469	29.731
848.492	29.727
848.514	29.759
848.537	29.782
848.559	29.745
848.582	29.773
848.604	29.814
848.627	29.694
848.649	29.768
848.672	29.741
848.694	29.750
848.717	29.689
848.739	29.722
848.761	29.713
848.784	29.777
848.806	29.795
848.829	29.694
848.851	29.741
848.874	29.754
848.896	29.754
848.919	29.731
848.941	29.722
848.963	29.717
848.986	29.773
849.008	29.722
849.031	29.713
849.053	29.741
849.075	29.754
849.098	29.652
849.120	29.731
849.143	29.741
849.165	29.727
849.187	29.759
849.210	29.717
849.232	29.727
849.254	29.731
849.277	29.841
849.299	29.750
849.322	29.694
849.344	29.689
849.366	29.703
849.389	29.768
849.411	29.759
849.433	29.736
849.456	29.722
849.478	29.850
849.500	29.832
849.523	29.741
849.545	29.773
849.567	29.795
849.590	29.791
849.612	29.717
849.634	29.713
849.657	29.722
849.679	29.759
849.701	29.754
849.724	29.768
849.746	29.722
849.768	29.800
849.791	29.717
849.813	29.699
849.835	29.777
849.857	29.713
849.880	29.754
849.902	29.814
849.924	29.745
849.946	29.786
849.969	29.809
849.991	29.741
850.013	29.722
850.036	29.782
850.058	29.736
850.080	29.759
850.102	29.872
850.125	29.736
850.147	29.786
850.169	29.795
850.191	29.754
850.214	29.727
850.236	29.805
850.258	29.773
850.280	29.722
850.302	29.689
850.325	29.671
850.347	29.731
850.369	29.722
850.391	29.731
850.414	29.773
850.436	29.754
850.458	29.741
850.480	29.768
850.502	29.773
850.524	29.841
850.547	29.708
850.569	29.791
850.591	29.768
850.613	29.708
850.635	29.717
850.658	29.731
850.680	29.773
850.702	29.699
850.724	29.741
850.746	29.841
850.768	29.727
850.791	29.754
850.813	29.782
850.835	29.827
850.857	29.745
850.879	29.703
850.901	29.745
850.923	29.768
850.945	29.759
850.968	29.717
850.990	29.764
851.012	29.899
851.034	30.465
851.056	31.578
851.078	32.648
851.100	33.845
851.122	34.661
851.144	35.141
851.167	35.317
851.189	34.894
851.211	33.600
851.233	32.558
851.255	31.216
851.277	30.386
851.299	30.026
851.321	29.899
851.343	29.890
851.365	30.133
851.387	31.222
851.409	32.502
851.431	33.929
851.453	35.529
851.476	36.599
851.498	36.924
851.520	36.192
851.542	34.663
851.564	33.502
851.586	31.953
851.608	30.477
851.630	29.983
851.652	29.854
851.674	29.809
851.696	29.786
851.718	29.791
851.740	29.745
851.762	29.845
851.784	29.868
851.806	29.859
851.828	29.809
851.850	29.754
851.872	29.699
851.894	29.750
851.916	29.791
851.938	29.782
851.960	29.786
851.982	29.782
852.004	29.768
852.026	29.736
852.048	29.727
852.070	29.741
852.092	29.759
852.114	29.741
852.135	29.764
852.157	29.727
852.179	29.689
852.201	29.745
852.223	29.741
852.245	29.859
852.267	29.814
852.289	29.782
852.311	29.694
852.333	29.736
852.355	29.741
852.377	29.791
852.399	29.741
852.421	29.736
852.442	29.805
852.464	29.805
852.486	29.809
852.508	29.727
852.530	29.722
852.552	29.754
852.574	29.713
852.596	29.800
852.618	29.782
852.639	29.661
852.661	29.685
852.683	29.741
852.705	29.782
852.727	29.713
852.749	29.731
852.771	29.818
852.792	29.777
852.814	29.745
852.836	29.722
852.858	29.764
852.880	29.745
852.902	29.703
852.924	29.647
852.945	29.745
852.967	29.754
852.989	29.736
853.011	29.713
853.033	29.768
853.055	29.741
853.076	29.773
853.098	29.643
853.120	29.736
853.142	29.736
853.164	29.777
853.185	29.754
853.207	29.750
853.229	29.689
853.251	29.795
853.272	29.685
853.294	29.736
853.316	29.722
853.338	29.786
853.360	29.722
853.381	29.791
853.403	29.759
853.425	29.717
853.447	29.754
853.468	29.759
853.490	29.777
853.512	29.685
853.534	29.745
853.555	29.703
853.577	29.717
853.599	29.795
853.620	29.699
853.642	29.745
853.664	29.694
853.686	29.680
853.707	29.768
853.729	29.731
853.751	29.786
853.773	29.800
853.794	29.736
853.816	29.754
853.838	29.791
853.859	29.782
853.881	29.764
853.903	29.727
853.924	29.736
853.946	29.750
853.968	29.764
853.989	29.685
854.011	29.768
854.033	29.727
854.054	29.745
854.076	29.768
854.098	29.773
854.119	29.745
854.141	29.768
854.163	29.713
854.184	29.708
854.206	29.754
854.228	29.741
854.249	29.703
854.271	29.736
854.292	29.713
854.314	29.750
854.336	29.713
854.357	29.717
854.379	29.722
854.401	29.638
854.422	29.727
854.444	29.708
854.465	29.699
854.487	29.703
854.509	29.791
854.530	29.703
854.552	29.782
854.573	29.741
854.595	29.759
854.617	29.717
854.638	29.689
854.660	29.736
854.681	29.791
854.703	29.773
854.724	29.666
854.746	29.680
854.767	29.731
854.789	29.727
854.811	29.809
854.832	29.818
854.854	29.694
854.875	29.727
854.897	29.750
854.918	29.827
854.940	29.713
854.961	29.795
854.983	29.754
855.004	29.680
855.026	29.685
855.047	29.708
855.069	29.736
855.090	29.708
855.112	29.680
855.133	29.741
855.155	29.800
855.176	29.685
855.198	29.671
855.219	29.736
855.241	29.759
855.262	29.764
855.284	29.708
855.305	29.675
855.327	29.773
855.348	29.764
855.370	29.666
855.391	29.685
855.413	29.745
855.434	29.694
855.456	29.675
855.477	29.722
855.498	29.680
855.520	29.745
855.541	29.791
855.563	29.713
855.584	29.754
855.606	29.827
855.627	29.731
855.648	29.703
855.670	29.818
855.691	29.791
855.713	29.809
855.734	29.777
855.755	29.841
855.777	29.759
855.798	29.777
855.820	29.708
855.841	29.750
855.862	29.750
855.884	29.791
855.905	29.750
855.927	29.805
855.948	29.727
855.969	29.773
855.991	29.736
856.012	29.768
856.033	29.741
856.055	29.708
856.076	29.722
856.098	29.750
856.119	29.717
856.140	29.750
856.162	29.731
856.183	29.731
856.204	29.708
856.226	29.643
856.247	29.722
856.268	29.805
856.290	29.741
856.311	29.750
856.332	29.699
856.354	29.759
856.375	29.800
856.396	29.773
856.417	29.777
856.439	29.708
856.460	29.741
856.481	29.750
