Wavelength (nm)	Rel. spec. intensity (dB)
844.530	29.754
844.553	29.741
844.576	29.754
844.599	29.657
844.622	29.699
844.645	29.722
844.668	29.699
844.692	29.699
844.715	29.736
844.738	29.689
844.761	29.764
844.784	29.657
844.807	29.685
844.830	29.699
844.853	29.657
844.876	29.717
844.899	29.741
844.922	29.666
844.945	29.708
844.968	29.759
844.991	29.666
845.014	29.661
845.037	29.791
845.060	29.671
845.083	29.727
845.105	29.764
845.128	29.717
845.151	29.727
845.174	29.703
845.197	29.782
845.220	29.741
845.243	29.741
845.266	29.699
845.289	29.741
845.312	29.750
845.335	29.795
845.358	29.745
845.381	29.731
845.404	29.759
845.427	29.791
845.450	29.685
845.473	29.661
845.496	29.717
845.518	29.661
845.541	29.699
845.564	29.689
845.587	29.689
845.610	29.777
845.633	29.741
845.656	29.722
845.679	29.759
845.702	29.800
845.724	29.759
845.747	29.773
845.770	29.671
845.793	29.773
845.816	29.722
845.839	29.791
845.862	29.754
845.885	29.661
845.907	29.777
845.930	29.731
845.953	29.708
845.976	29.764
845.999	29.741
846.022	29.773
846.045	29.722
846.067	29.727
846.090	29.741
846.113	29.657
846.136	29.666
846.159	29.795
846.182	29.750
846.204	29.694
846.227	29.647
846.250	29.694
846.273	29.675
846.296	29.722
846.318	29.786
846.341	29.703
846.364	29.736
846.387	29.731
846.410	29.754
846.432	29.736
846.455	29.777
846.478	29.782
846.501	29.759
846.523	29.800
846.546	29.703
846.569	29.703
846.592	29.680
846.614	29.675
846.637	29.731
846.660	29.703
846.683	29.741
846.705	29.754
846.728	29.671
846.751	29.717
846.774	29.759
846.796	29.727
846.819	29.699
846.842	29.754
846.865	29.722
846.887	29.736
846.910	29.708
846.933	29.777
846.955	29.750
846.978	29.736
847.001	29.759
847.023	29.699
847.046	29.717
847.069	29.722
847.092	29.722
847.114	29.661
847.137	29.731
847.160	29.764
847.182	29.727
847.205	29.795
847.228	29.694
847.250	29.754
847.273	29.694
847.296	29.713
847.318	29.708
847.341	29.754
847.364	29.773
847.386	29.703
847.409	29.680
847.432	29.814
847.454	29.699
847.477	29.694
847.499	29.666
847.522	29.754
847.545	29.708
847.567	29.750
847.590	29.745
847.613	29.759
847.635	29.722
847.658	29.777
847.680	29.685
847.703	29.795
847.726	29.818
847.748	29.773
847.771	29.722
847.793	29.694
847.816	29.809
847.839	29.736
847.861	29.708
847.884	29.699
847.906	29.759
847.929	29.809
847.951	29.921
847.974	30.056
847.996	30.577
848.019	31.732
848.042	33.084
848.064	34.296
848.087	35.789
848.109	36.855
848.132	36.373
848.154	34.844
848.177	33.909
848.199	32.524
848.222	31.113
848.244	30.241
848.267	29.939
848.289	29.868
848.312	29.764
848.334	29.877
848.357	29.791
848.379	29.768
848.402	29.795
848.424	29.805
848.447	29.777
848.469	29.741
848.492	29.845
848.514	30.149
848.537	30.924
848.559	31.810
848.582	32.629
848.604	33.512
848.627	33.760
848.649	32.927
848.672	31.804
848.694	30.821
848.717	30.149
848.739	29.978
848.761	29.827
848.784	29.877
848.806	29.836
848.829	30.314
848.851	30.938
848.874	31.798
848.896	33.181
848.919	34.530
848.941	35.746
848.963	36.572
848.986	37.048
849.008	36.663
849.031	36.043
849.053	36.243
849.075	36.722
849.098	36.886
849.120	35.801
849.143	34.374
849.165	33.274
849.187	32.109
849.210	30.788
849.232	30.183
849.254	29.948
849.277	29.917
849.299	29.908
849.322	30.170
849.344	30.663
849.366	31.629
849.389	32.765
849.411	34.270
849.433	35.925
849.456	37.353
849.478	37.843
849.500	38.438
849.523	38.728
849.545	38.363
849.567	37.077
849.590	35.550
849.612	34.299
849.634	32.730
849.657	30.990
849.679	30.107
849.701	29.877
849.724	29.805
849.746	29.773
849.768	29.908
849.791	30.278
849.813	31.245
849.835	32.440
849.857	33.666
849.880	35.004
849.902	35.575
849.924	35.207
849.946	34.141
849.969	32.783
849.991	31.031
850.013	30.133
850.036	29.827
850.058	29.782
850.080	29.823
850.102	29.713
850.125	29.717
850.147	29.782
850.169	29.727
850.191	29.791
850.214	29.754
850.236	29.764
850.258	29.764
850.280	29.731
850.302	29.685
850.325	29.750
850.347	29.759
850.369	29.741
850.391	29.694
850.414	29.713
850.436	29.754
850.458	29.731
850.480	29.777
850.502	29.643
850.524	29.685
850.547	29.814
850.569	29.814
850.591	29.768
850.613	29.759
850.635	29.731
850.658	29.777
850.680	29.759
850.702	29.703
850.724	29.754
850.746	29.773
850.768	29.750
850.791	29.722
850.813	29.750
850.835	29.694
850.857	29.671
850.879	29.754
850.901	29.717
850.923	29.666
850.945	29.745
850.968	29.694
850.990	29.703
851.012	29.699
851.034	29.754
851.056	29.708
851.078	29.685
851.100	29.727
851.122	29.745
851.144	29.791
851.167	29.754
851.189	29.731
851.211	29.736
851.233	29.731
851.255	29.754
851.277	29.759
851.299	29.736
851.321	29.750
851.343	29.685
851.365	29.689
851.387	29.754
851.409	29.741
851.431	29.832
851.453	29.768
851.476	29.754
851.498	29.694
851.520	29.703
851.542	29.754
851.564	29.777
851.586	29.777
851.608	29.689
851.630	29.786
851.652	29.722
851.674	29.759
851.696	29.759
851.718	29.731
851.740	29.713
851.762	29.727
851.784	29.764
851.806	29.666
851.828	29.768
851.850	29.727
851.872	29.727
851.894	29.689
851.916	29.736
851.938	29.777
851.960	29.745
851.982	29.671
852.004	29.689
852.026	29.685
852.048	29.703
852.070	29.782
852.092	29.750
852.114	29.814
852.135	29.759
852.157	29.741
852.179	29.699
852.201	29.754
852.223	29.722
852.245	29.736
852.267	29.666
852.289	29.809
852.311	29.745
852.333	29.717
852.355	29.689
852.377	29.741
852.399	29.800
852.421	29.722
852.442	29.736
852.464	29.795
852.486	29.764
852.508	29.722
852.530	29.777
852.552	29.657
852.574	29.764
852.596	29.657
852.618	29.741
852.639	29.727
852.661	29.736
852.683	29.694
852.705	29.773
852.727	29.713
852.749	29.685
852.771	29.750
852.792	29.722
852.814	29.791
852.836	29.768
852.858	29.731
852.880	29.800
852.902	29.768
852.924	29.782
852.945	29.800
852.967	29.694
852.989	29.685
853.011	29.759
853.033	29.809
853.055	29.727
853.076	29.717
853.098	29.708
853.120	29.731
853.142	29.750
853.164	29.713
853.185	29.782
853.207	29.768
853.229	29.717
853.251	29.745
853.272	29.754
853.294	29.745
853.316	29.703
853.338	29.736
853.360	29.759
853.381	29.699
853.403	29.699
853.425	29.699
853.447	29.754
853.468	29.694
853.490	29.736
853.512	29.791
853.534	29.657
853.555	29.759
853.577	29.722
853.599	29.736
853.620	29.685
853.642	29.713
853.664	29.768
853.686	29.647
853.707	29.703
853.729	29.722
853.751	29.694
853.773	29.689
853.794	29.722
853.816	29.731
853.838	29.754
853.859	29.731
853.881	29.689
853.903	29.736
853.924	29.722
853.946	29.773
853.968	29.717
853.989	29.727
854.011	29.661
854.033	29.795
854.054	29.754
854.076	29.703
854.098	29.759
854.119	29.773
854.141	29.745
854.163	29.731
854.184	29.736
854.206	29.741
854.228	29.759
854.249	29.754
854.271	29.666
854.292	29.694
854.314	29.675
854.336	29.731
854.357	29.782
854.379	29.750
854.401	29.745
854.422	29.657
854.444	29.713
854.465	29.745
854.487	29.741
854.509	29.750
