Wavelength (nm)	Rel. spec. intensity (dB)
844.853	29.841
844.876	29.881
844.899	29.859
844.922	29.863
844.945	29.827
844.968	29.877
844.991	29.800
845.014	29.854
845.037	29.827
845.060	29.841
845.083	29.827
845.105	29.868
845.128	29.921
845.151	29.877
845.174	29.886
845.197	29.786
845.220	29.814
845.243	29.795
845.266	29.841
845.289	29.773
845.312	29.836
845.335	29.859
845.358	29.894
845.381	29.899
845.404	29.868
845.427	29.863
845.450	29.805
845.473	29.863
845.496	29.854
845.518	29.823
845.541	29.832
845.564	29.805
845.587	29.795
845.610	29.836
845.633	29.777
845.656	29.800
845.679	29.827
845.702	29.805
845.724	29.823
845.747	29.814
845.770	29.845
845.793	29.868
845.816	29.832
845.839	29.845
845.862	29.868
845.885	29.908
845.907	29.859
845.930	29.850
845.953	29.805
845.976	29.805
845.999	29.881
846.022	29.791
846.045	29.809
846.067	29.859
846.090	29.777
846.113	29.863
846.136	29.773
846.159	29.886
846.182	29.863
846.204	29.877
846.227	29.795
846.250	29.832
846.273	29.863
846.296	29.809
846.318	29.818
846.341	29.868
846.364	29.823
846.387	29.850
846.410	29.841
846.432	29.850
846.455	29.832
846.478	29.845
846.501	29.795
846.523	29.727
846.546	29.818
846.569	29.872
846.592	29.850
846.614	29.948
846.637	29.899
846.660	29.886
846.683	29.827
846.705	29.827
846.728	29.886
846.751	29.863
846.774	29.854
846.796	29.827
846.819	29.845
846.842	29.912
846.865	29.859
846.887	29.845
846.910	29.750
846.933	29.827
846.955	29.850
846.978	29.863
847.001	29.859
847.023	29.881
847.046	29.818
847.069	29.859
847.092	29.832
847.114	29.795
847.137	29.795
847.160	29.863
847.182	29.773
847.205	29.800
847.228	29.786
847.250	29.823
847.273	29.818
847.296	29.899
847.318	29.823
847.341	29.841
847.364	29.899
847.386	29.850
847.409	29.805
847.432	29.903
847.454	29.836
847.477	29.863
847.499	29.827
847.522	29.809
847.545	29.827
847.567	29.845
847.590	29.818
847.613	29.832
847.635	29.863
847.658	29.912
847.680	29.872
847.703	29.872
847.726	29.827
847.748	29.850
847.771	29.814
847.793	29.818
847.816	29.859
847.839	29.827
847.861	29.791
847.884	29.786
847.906	29.903
847.929	29.795
847.951	29.750
847.974	29.917
847.996	29.868
848.019	29.782
848.042	29.814
848.064	29.841
848.087	29.859
848.109	29.903
848.132	29.823
848.154	29.782
848.177	29.836
848.199	29.952
848.222	29.930
848.244	29.836
848.267	29.854
848.289	29.899
848.312	29.845
848.334	29.773
848.357	29.863
848.379	29.872
848.402	29.850
848.424	29.814
848.447	29.827
848.469	29.814
848.492	29.859
848.514	29.868
848.537	29.832
848.559	29.863
848.582	29.894
848.604	29.841
848.627	29.886
848.649	29.773
848.672	29.773
848.694	29.791
848.717	29.814
848.739	29.814
848.761	29.886
848.784	29.845
848.806	29.832
848.829	29.863
848.851	29.814
848.874	29.845
848.896	29.800
848.919	29.872
848.941	29.899
848.963	30.137
848.986	30.777
849.008	31.319
849.031	31.189
849.053	30.257
849.075	29.991
849.098	29.859
849.120	29.894
849.143	29.832
849.165	29.894
849.187	29.921
849.210	29.736
849.232	29.854
849.254	29.903
849.277	29.823
849.299	29.917
849.322	29.948
849.344	30.141
849.366	30.577
849.389	31.126
849.411	31.858
849.433	32.627
849.456	33.115
849.478	32.238
849.500	31.000
849.523	30.253
849.545	30.052
849.567	29.943
849.590	29.974
849.612	29.965
849.634	30.022
849.657	30.523
849.679	31.544
849.701	32.707
849.724	34.155
849.746	35.704
849.768	37.328
849.791	38.393
849.813	38.734
849.835	38.869
849.857	38.550
849.880	36.838
849.902	34.976
849.924	33.418
849.946	32.000
849.969	30.824
849.991	30.241
850.013	30.082
850.036	30.257
850.058	31.035
850.080	32.060
850.102	33.118
850.125	34.365
850.147	35.726
850.169	36.707
850.191	36.641
850.214	35.355
850.236	33.707
850.258	32.082
850.280	30.558
850.302	30.086
850.325	30.048
850.347	29.969
850.369	29.921
850.391	29.894
850.414	29.877
850.436	29.845
850.458	29.881
850.480	29.917
850.502	29.908
850.524	29.841
850.547	29.809
850.569	29.859
850.591	29.841
850.613	29.926
850.635	29.877
850.658	29.845
850.680	29.795
850.702	29.899
850.724	29.850
850.746	29.894
850.768	29.868
850.791	29.912
850.813	29.863
850.835	29.863
850.857	29.912
850.879	29.836
850.901	29.814
850.923	29.818
850.945	29.917
850.968	29.921
850.990	29.827
851.012	29.872
851.034	29.912
851.056	29.890
851.078	29.845
851.100	29.872
851.122	29.845
851.144	29.854
851.167	29.795
851.189	29.836
851.211	29.805
851.233	29.877
851.255	29.886
851.277	29.943
851.299	29.877
851.321	29.814
851.343	29.886
851.365	29.877
851.387	29.863
851.409	29.863
851.431	29.850
851.453	29.881
851.476	29.827
851.498	29.841
851.520	29.872
851.542	29.782
851.564	29.832
851.586	29.795
851.608	29.854
851.630	29.777
851.652	29.809
851.674	29.841
851.696	29.841
851.718	29.809
851.740	29.881
851.762	29.836
851.784	29.845
851.806	29.854
851.828	29.872
851.850	29.872
851.872	29.836
851.894	29.836
851.916	29.773
851.938	29.814
851.960	29.832
851.982	29.859
852.004	29.786
852.026	29.768
852.048	29.877
852.070	29.841
852.092	29.854
852.114	29.827
852.135	29.805
852.157	29.868
852.179	29.863
852.201	29.832
852.223	29.827
852.245	29.768
852.267	29.818
852.289	29.791
852.311	29.800
852.333	29.818
852.355	29.854
852.377	29.805
852.399	29.782
852.421	29.859
852.442	29.881
852.464	29.841
852.486	29.841
852.508	29.859
852.530	29.823
852.552	29.832
852.574	29.809
852.596	29.795
852.618	29.921
852.639	29.850
852.661	29.809
852.683	29.894
852.705	29.841
852.727	29.832
852.749	29.921
852.771	29.877
852.792	29.827
852.814	29.850
852.836	29.863
852.858	29.845
852.880	29.845
852.902	29.899
852.924	29.868
852.945	29.863
852.967	29.841
852.989	29.777
853.011	29.912
853.033	29.850
853.055	29.832
853.076	29.791
853.098	29.795
853.120	29.872
853.142	29.836
853.164	29.818
853.185	29.823
853.207	29.854
853.229	29.845
853.251	29.845
853.272	29.894
853.294	29.859
853.316	29.921
853.338	29.863
853.360	29.773
853.381	29.850
853.403	29.786
853.425	29.832
853.447	29.859
853.468	29.814
853.490	29.805
853.512	29.863
853.534	29.791
853.555	29.795
853.577	29.863
853.599	29.917
853.620	29.841
853.642	29.854
853.664	29.814
853.686	29.850
853.707	29.809
853.729	29.850
853.751	29.786
853.773	29.814
853.794	29.741
853.816	29.854
853.838	29.795
853.859	29.764
853.881	29.894
853.903	29.890
853.924	29.859
853.946	29.777
853.968	29.814
853.989	29.791
854.011	29.832
854.033	29.841
854.054	29.841
854.076	29.859
854.098	29.868
854.119	29.832
854.141	29.703
854.163	29.845
854.184	29.854
854.206	29.863
854.228	29.859
854.249	29.823
854.271	29.854
854.292	29.841
854.314	29.827
854.336	29.899
854.357	29.859
854.379	29.872
854.401	29.854
854.422	29.832
854.444	29.823
854.465	29.845
854.487	29.930
854.509	29.894
854.530	29.786
854.552	29.832
854.573	29.827
854.595	29.877
854.617	29.877
854.638	29.894
854.660	29.854
854.681	29.777
854.703	29.768
854.724	29.886
854.746	29.809
854.767	29.786
854.789	29.868
854.811	29.845
854.832	29.786
