Wavelength (nm)	Rel. spec. intensity (dB)
849.254	29.827
849.277	29.908
849.299	29.845
849.322	29.836
849.344	29.832
849.366	29.850
849.389	29.881
849.411	29.832
849.433	29.818
849.456	29.917
849.478	29.764
849.500	29.841
849.523	29.868
849.545	29.773
849.567	29.845
849.590	29.868
849.612	29.841
849.634	29.854
849.657	29.850
849.679	29.809
849.701	29.850
849.724	29.823
849.746	29.782
849.768	29.827
849.791	29.836
849.813	29.805
849.835	29.768
849.857	29.814
849.880	29.768
849.902	29.899
849.924	29.795
849.946	29.832
849.969	29.782
849.991	29.841
850.013	29.805
850.036	29.850
850.058	29.841
850.080	29.912
850.102	29.881
850.125	29.805
850.147	29.827
850.169	29.800
850.191	29.868
850.214	29.791
850.236	29.832
850.258	29.827
850.280	29.836
850.302	29.823
850.325	29.823
850.347	29.814
850.369	29.805
850.391	29.832
850.414	29.795
850.436	29.863
850.458	29.894
850.480	29.934
850.502	29.881
850.524	29.841
850.547	29.872
850.569	29.814
850.591	29.782
850.613	29.836
850.635	29.903
850.658	29.841
850.680	29.868
850.702	29.845
850.724	29.777
850.746	29.795
850.768	29.827
850.791	29.850
850.813	29.917
850.835	29.832
850.857	29.759
850.879	29.786
850.901	29.805
850.923	29.800
850.945	29.823
850.968	29.868
850.990	29.795
851.012	29.818
851.034	29.832
851.056	29.863
851.078	29.903
851.100	29.795
851.122	29.786
851.144	29.809
851.167	29.795
851.189	29.827
851.211	29.859
851.233	29.854
851.255	29.934
851.277	29.872
851.299	29.782
851.321	29.886
851.343	29.872
851.365	29.886
851.387	29.795
851.409	29.854
851.431	29.841
851.453	29.823
851.476	29.836
851.498	29.881
851.520	29.863
851.542	29.764
851.564	29.795
851.586	29.836
851.608	29.863
851.630	29.836
851.652	29.881
851.674	29.818
851.696	29.814
851.718	29.917
851.740	29.845
851.762	29.868
851.784	29.854
851.806	29.863
851.828	29.859
851.850	29.841
851.872	29.912
851.894	29.773
851.916	29.805
851.938	29.832
851.960	29.854
851.982	29.800
852.004	29.827
852.026	29.850
852.048	29.872
852.070	29.859
852.092	29.782
852.114	29.827
852.135	29.836
852.157	29.832
852.179	29.845
852.201	29.877
852.223	29.850
852.245	29.832
852.267	29.791
852.289	29.841
852.311	29.859
852.333	29.832
852.355	29.890
852.377	29.881
852.399	29.903
852.421	29.836
852.442	29.868
852.464	29.814
852.486	29.836
852.508	29.805
852.530	29.777
852.552	29.850
852.574	29.886
852.596	29.863
852.618	29.890
852.639	29.845
852.661	29.786
852.683	29.773
852.705	29.699
852.727	29.845
852.749	29.836
852.771	29.859
852.792	29.868
852.814	29.850
852.836	29.854
852.858	29.809
852.880	29.912
852.902	29.818
852.924	29.777
852.945	29.859
852.967	29.823
852.989	29.823
853.011	29.872
853.033	29.863
853.055	29.850
853.076	29.832
853.098	29.854
853.120	29.877
853.142	29.800
853.164	29.934
853.185	30.052
853.207	29.952
853.229	29.952
853.251	29.930
853.272	29.841
853.294	29.786
853.316	29.845
853.338	29.859
853.360	29.827
853.381	29.912
853.403	29.805
853.425	29.754
853.447	29.854
853.468	29.854
853.490	29.934
853.512	29.827
853.534	29.850
853.555	29.939
853.577	29.805
853.599	29.894
853.620	29.912
853.642	29.868
853.664	29.786
853.686	29.786
853.707	29.823
853.729	29.899
853.751	29.791
853.773	29.827
853.794	29.868
853.816	29.886
853.838	29.890
853.859	29.872
853.881	29.777
853.903	29.845
853.924	29.800
853.946	29.800
853.968	29.845
853.989	29.782
854.011	29.886
854.033	29.823
854.054	30.052
854.076	30.558
854.098	31.212
854.119	32.269
854.141	33.531
854.163	34.993
854.184	36.268
854.206	36.890
854.228	37.011
854.249	37.138
854.271	36.335
854.292	34.717
854.314	33.056
854.336	31.153
854.357	30.208
854.379	29.974
854.401	29.939
854.422	29.886
854.444	29.845
854.465	29.841
854.487	29.881
854.509	29.859
854.530	29.814
854.552	29.868
854.573	29.859
854.595	29.899
854.617	29.836
854.638	29.921
854.660	29.868
854.681	29.841
854.703	29.841
854.724	29.881
854.746	29.814
854.767	29.863
854.789	29.863
854.811	29.827
854.832	29.805
854.854	29.827
854.875	29.868
854.897	29.868
854.918	29.845
854.940	29.863
854.961	29.805
854.983	29.903
855.004	29.805
855.026	29.827
855.047	29.863
855.069	29.823
855.090	29.841
855.112	29.850
855.133	29.899
855.155	29.881
855.176	29.823
855.198	29.786
855.219	29.926
855.241	29.795
855.262	29.832
855.284	29.868
855.305	29.912
855.327	29.805
855.348	29.832
855.370	29.845
855.391	29.836
855.413	29.872
855.434	29.886
855.456	29.872
855.477	29.786
855.498	29.917
855.520	29.926
855.541	29.850
855.563	29.886
855.584	29.823
855.606	29.836
855.627	29.859
855.648	29.809
855.670	29.814
855.691	29.736
855.713	29.795
855.734	29.890
855.755	29.854
855.777	29.823
855.798	29.791
855.820	29.836
855.841	29.827
855.862	29.881
855.884	29.786
855.905	29.805
855.927	29.859
855.948	29.832
855.969	29.886
855.991	29.795
856.012	29.894
856.033	29.850
856.055	29.908
856.076	29.836
856.098	29.939
856.119	29.805
856.140	29.872
856.162	29.836
856.183	29.805
856.204	29.850
856.226	29.899
856.247	29.809
856.268	29.845
856.290	29.850
856.311	29.881
856.332	29.818
856.354	29.754
856.375	29.791
856.396	29.854
856.417	29.800
856.439	29.899
856.460	29.863
856.481	29.818
856.503	29.845
856.524	29.836
856.545	29.782
856.566	29.823
856.588	29.845
856.609	29.899
856.630	29.818
856.652	29.854
856.673	29.886
856.694	29.805
856.715	29.823
856.737	29.845
856.758	29.894
856.779	29.791
856.800	29.850
856.822	29.745
856.843	29.754
856.864	29.845
856.885	29.854
856.907	29.845
856.928	29.845
856.949	29.809
856.970	29.791
856.991	29.872
857.013	29.921
857.034	29.845
857.055	29.908
857.076	29.850
857.097	29.863
857.119	29.841
857.140	29.764
857.161	29.773
857.182	29.823
857.203	29.859
857.225	29.850
857.246	29.894
857.267	29.814
857.288	29.832
857.309	29.795
857.330	29.805
857.352	29.832
857.373	29.877
857.394	29.877
857.415	29.832
857.436	29.795
857.457	29.886
857.479	29.868
857.500	29.800
857.521	29.814
857.542	29.823
857.563	29.868
857.584	29.881
857.605	29.764
857.626	29.841
857.648	29.768
857.669	29.854
857.690	29.845
857.711	29.754
857.732	29.863
857.753	29.827
857.774	29.926
857.795	29.868
857.816	29.814
857.837	29.908
857.859	29.854
857.880	29.845
857.901	29.872
857.922	29.809
857.943	29.859
857.964	29.827
857.985	29.768
858.006	29.850
858.027	29.832
858.048	29.809
858.069	29.845
858.090	29.894
858.111	29.818
858.132	29.886
858.153	29.912
858.174	29.850
858.195	29.859
858.216	29.863
858.237	29.890
858.258	29.832
858.279	29.836
858.300	29.845
858.321	29.943
858.342	29.841
858.363	29.827
858.384	29.814
858.406	29.841
858.426	29.818
858.447	29.805
858.468	29.863
858.489	29.859
858.510	29.854
858.531	29.809
858.552	29.791
858.573	29.745
858.594	29.722
858.615	29.750
858.636	29.764
858.657	29.863
858.678	29.872
858.699	29.859
858.720	29.877
858.741	29.814
858.762	29.827
858.783	29.845
858.804	29.841
858.825	29.850
858.846	29.736
858.867	29.795
858.888	29.795
858.908	29.777
858.929	29.859
858.950	29.850
858.971	29.795
858.992	29.782
859.013	29.890
859.034	29.845
859.055	29.863
859.076	29.894
859.097	29.912
859.117	29.800
859.138	29.827
859.159	29.736
859.180	29.832
859.201	29.800
859.222	29.841
859.243	29.890
