Wavelength (nm)	Rel. spec. intensity (dB)
850.013	29.809
850.036	29.850
850.058	29.764
850.080	29.764
850.102	29.661
850.125	29.768
850.147	29.750
850.169	29.836
850.191	29.713
850.214	29.708
850.236	29.731
850.258	29.750
850.280	29.750
850.302	29.750
850.325	29.805
850.347	29.795
850.369	29.731
850.391	29.773
850.414	29.827
850.436	29.800
850.458	29.791
850.480	29.777
850.502	29.736
850.524	29.717
850.547	29.745
850.569	29.699
850.591	29.768
850.613	29.741
850.635	29.754
850.658	29.805
850.680	29.841
850.702	29.795
850.724	29.786
850.746	29.805
850.768	29.759
850.791	29.750
850.813	29.814
850.835	29.791
850.857	29.809
850.879	29.764
850.901	29.750
850.923	29.809
850.945	29.727
850.968	29.786
850.990	29.722
851.012	29.754
851.034	29.643
851.056	29.713
851.078	29.741
851.100	29.795
851.122	29.727
851.144	29.764
851.167	29.731
851.189	29.791
851.211	29.782
851.233	29.814
851.255	29.722
851.277	29.786
851.299	29.764
851.321	29.777
851.343	29.745
851.365	29.800
851.387	29.786
851.409	29.759
851.431	29.671
851.453	29.768
851.476	29.777
851.498	29.773
851.520	29.731
851.542	29.759
851.564	29.722
851.586	29.800
851.608	29.713
851.630	29.736
851.652	29.750
851.674	29.823
851.696	29.713
851.718	29.795
851.740	29.782
851.762	29.791
851.784	29.727
851.806	29.773
851.828	29.764
851.850	29.731
851.872	29.809
851.894	29.777
851.916	29.768
851.938	29.768
851.960	29.699
851.982	29.782
852.004	29.832
852.026	29.863
852.048	29.805
852.070	29.722
852.092	29.814
852.114	29.722
852.135	29.832
852.157	29.795
852.179	29.782
852.201	29.727
852.223	29.699
852.245	29.827
852.267	29.764
852.289	29.795
852.311	29.845
852.333	29.823
852.355	29.814
852.377	29.689
852.399	29.754
852.421	29.786
852.442	29.773
852.464	29.750
852.486	29.750
852.508	29.809
852.530	29.722
852.552	29.764
852.574	29.795
852.596	29.750
852.618	29.768
852.639	29.827
852.661	29.768
852.683	29.754
852.705	29.713
852.727	29.685
852.749	29.777
852.771	29.722
852.792	29.741
852.814	29.786
852.836	29.827
852.858	29.764
852.880	29.745
852.902	29.759
852.924	29.759
852.945	29.768
852.967	29.795
852.989	29.800
853.011	29.818
853.033	29.713
853.055	29.754
853.076	29.809
853.098	29.795
853.120	29.764
853.142	29.809
853.164	29.786
853.185	29.699
853.207	29.731
853.229	29.745
853.251	29.768
853.272	29.699
853.294	29.731
853.316	29.736
853.338	29.782
853.360	29.764
853.381	29.795
853.403	29.764
853.425	29.786
853.447	29.731
853.468	29.731
853.490	29.791
853.512	29.791
853.534	29.759
853.555	29.708
853.577	29.791
853.599	29.782
853.620	29.759
853.642	29.791
853.664	29.773
853.686	29.805
853.707	29.800
853.729	29.773
853.751	29.754
853.773	29.722
853.794	29.750
853.816	29.805
853.838	29.782
853.859	29.791
853.881	29.836
853.903	29.759
853.924	29.877
853.946	29.750
853.968	29.741
853.989	29.791
854.011	29.814
854.033	29.805
854.054	29.786
854.076	29.795
854.098	29.713
854.119	29.722
854.141	29.754
854.163	29.717
854.184	29.731
854.206	29.773
854.228	29.689
854.249	29.745
854.271	29.731
854.292	29.731
854.314	29.841
854.336	29.805
854.357	29.795
854.379	29.745
854.401	29.694
854.422	29.764
854.444	29.717
854.465	29.713
854.487	29.736
854.509	29.795
854.530	29.773
854.552	29.805
854.573	29.791
854.595	29.805
854.617	29.731
854.638	29.727
854.660	29.643
854.681	29.713
854.703	29.768
854.724	29.694
854.746	29.745
854.767	29.708
854.789	29.768
854.811	29.736
854.832	29.773
854.854	29.736
854.875	29.777
854.897	29.823
854.918	30.477
854.940	31.658
854.961	32.737
854.983	33.981
855.004	34.745
855.026	34.406
855.047	33.308
855.069	32.185
855.090	30.693
855.112	30.009
855.133	29.894
855.155	29.872
855.176	29.805
855.198	29.845
855.219	29.805
855.241	29.795
855.262	29.805
855.284	29.827
855.305	29.782
855.327	29.745
855.348	29.768
855.370	29.823
855.391	29.791
855.413	29.814
855.434	29.795
855.456	29.717
855.477	29.736
855.498	29.841
855.520	29.814
855.541	29.741
855.563	29.750
855.584	29.713
855.606	29.745
855.627	29.809
855.648	29.764
855.670	29.754
855.691	29.759
855.713	29.795
855.734	29.777
855.755	29.722
855.777	29.722
855.798	29.708
855.820	29.727
855.841	29.768
855.862	29.782
855.884	29.768
855.905	29.795
855.927	29.750
855.948	29.736
855.969	29.791
855.991	29.777
856.012	29.782
856.033	29.795
856.055	29.786
856.076	29.791
856.098	29.814
856.119	29.791
856.140	29.782
856.162	29.717
856.183	29.759
856.204	29.731
856.226	29.782
856.247	29.795
856.268	29.754
856.290	29.754
856.311	29.850
856.332	29.759
856.354	29.741
856.375	29.768
856.396	29.850
856.417	29.703
856.439	29.745
856.460	29.786
856.481	29.736
856.503	29.764
856.524	29.859
856.545	29.754
856.566	29.689
856.588	29.773
856.609	29.773
856.630	29.809
856.652	29.727
856.673	29.800
856.694	29.809
856.715	29.795
856.737	29.773
856.758	29.809
856.779	29.759
856.800	29.795
856.822	29.773
856.843	29.754
856.864	29.823
856.885	29.841
856.907	29.814
856.928	29.703
856.949	29.805
856.970	29.805
856.991	29.800
857.013	29.836
857.034	29.809
857.055	29.731
857.076	29.773
857.097	29.699
857.119	29.818
857.140	29.814
857.161	29.722
857.182	29.703
857.203	29.854
857.225	29.777
857.246	29.745
857.267	29.805
857.288	29.773
857.309	29.754
857.330	29.845
857.352	29.777
857.373	29.791
857.394	29.768
857.415	29.759
857.436	29.741
857.457	29.722
857.479	29.759
857.500	29.754
857.521	29.764
857.542	29.773
857.563	29.814
857.584	29.768
857.605	29.694
857.626	29.768
857.648	29.699
857.669	29.832
857.690	29.741
857.711	29.814
857.732	29.647
857.753	29.782
857.774	29.736
857.795	29.786
857.816	29.786
857.837	29.741
857.859	29.800
857.880	29.741
857.901	29.827
857.922	29.800
857.943	29.805
857.964	29.782
857.985	29.708
858.006	29.736
858.027	29.805
858.048	29.795
858.069	29.722
858.090	29.800
858.111	29.731
858.132	29.827
858.153	29.768
858.174	29.800
858.195	29.754
858.216	29.731
858.237	29.736
858.258	29.777
858.279	29.722
858.300	29.759
858.321	29.717
858.342	29.754
858.363	29.773
858.384	29.750
858.406	29.791
858.426	29.736
858.447	29.741
858.468	29.854
858.489	29.795
858.510	29.777
858.531	29.845
858.552	29.722
858.573	29.685
858.594	29.699
858.615	29.786
858.636	29.841
858.657	29.795
858.678	29.680
858.699	29.699
858.720	29.782
858.741	29.786
858.762	29.764
858.783	29.717
858.804	29.750
858.825	29.736
858.846	29.722
858.867	29.773
858.888	29.727
858.908	29.814
858.929	29.759
858.950	29.805
858.971	29.777
858.992	29.823
859.013	29.777
859.034	29.750
859.055	29.764
859.076	29.809
859.097	29.859
859.117	29.818
859.138	29.750
859.159	29.741
859.180	29.786
859.201	29.750
859.222	29.750
859.243	29.759
859.264	29.791
859.284	29.764
859.305	29.754
859.326	29.818
859.347	29.818
859.368	29.754
859.389	29.731
859.410	29.722
859.430	29.768
859.451	29.713
859.472	29.722
859.493	29.736
859.514	29.791
859.534	29.782
859.555	29.800
859.576	29.727
859.597	29.754
859.618	29.791
859.639	29.841
859.659	29.823
859.680	29.818
859.701	29.805
859.722	29.809
859.742	29.741
859.763	29.777
859.784	29.791
859.805	29.754
859.826	29.717
859.846	29.727
859.867	29.759
859.888	29.731
859.909	29.814
859.929	29.805
859.950	29.731
859.971	29.736
859.992	29.685
