Wavelength (nm)	Rel. spec. intensity (dB)
847.092	29.736
847.114	29.745
847.137	29.782
847.160	29.777
847.182	29.805
847.205	29.759
847.228	29.713
847.250	29.731
847.273	29.694
847.296	29.736
847.318	29.699
847.341	29.768
847.364	29.759
847.386	29.727
847.409	29.754
847.432	29.680
847.454	29.731
847.477	29.727
847.499	29.745
847.522	29.827
847.545	29.782
847.567	29.754
847.590	29.727
847.613	29.841
847.635	29.795
847.658	29.791
847.680	29.773
847.703	29.809
847.726	29.717
847.748	29.694
847.771	29.832
847.793	29.745
847.816	29.764
847.839	29.786
847.861	29.750
847.884	29.786
847.906	29.731
847.929	29.703
847.951	29.708
847.974	29.727
847.996	29.666
848.019	29.671
848.042	29.708
848.064	29.773
848.087	29.768
848.109	29.736
848.132	29.805
848.154	29.727
848.177	29.731
848.199	29.713
848.222	29.717
848.244	29.736
848.267	29.768
848.289	29.768
848.312	29.827
848.334	29.795
848.357	29.754
848.379	29.745
848.402	29.750
848.424	29.759
848.447	29.708
848.469	29.795
848.492	29.823
848.514	29.805
848.537	29.809
848.559	29.731
848.582	29.814
848.604	29.731
848.627	29.759
848.649	29.666
848.672	29.786
848.694	29.741
848.717	29.708
848.739	29.759
848.761	29.809
848.784	29.773
848.806	29.703
848.829	29.754
848.851	29.699
848.874	29.741
848.896	29.727
848.919	29.773
848.941	29.647
848.963	29.768
848.986	29.699
849.008	29.708
849.031	29.750
849.053	29.689
849.075	29.661
849.098	29.795
849.120	29.694
849.143	29.814
849.165	29.671
849.187	29.699
849.210	29.703
849.232	29.800
849.254	29.708
849.277	29.841
849.299	29.773
849.322	29.754
849.344	29.703
849.366	29.657
849.389	29.791
849.411	29.736
849.433	29.773
849.456	29.768
849.478	29.827
849.500	29.773
849.523	29.773
849.545	29.759
849.567	29.750
849.590	29.661
849.612	29.768
849.634	29.759
849.657	29.671
849.679	29.764
849.701	29.764
849.724	29.754
849.746	29.708
849.768	29.736
849.791	29.754
849.813	29.717
849.835	29.699
849.857	29.759
849.880	29.741
849.902	29.750
849.924	29.722
849.946	29.754
849.969	29.773
849.991	29.713
850.013	29.745
850.036	29.703
850.058	29.713
850.080	29.680
850.102	29.699
850.125	29.741
850.147	29.795
850.169	29.713
850.191	29.731
850.214	29.736
850.236	29.773
850.258	29.666
850.280	29.759
850.302	29.717
850.325	29.809
850.347	29.745
850.369	29.708
850.391	29.754
850.414	29.652
850.436	29.722
850.458	29.689
850.480	29.745
850.502	29.745
850.524	29.791
850.547	29.782
850.569	29.731
850.591	29.768
850.613	29.741
850.635	29.754
850.658	29.809
850.680	29.727
850.702	29.754
850.724	29.768
850.746	29.782
850.768	29.768
850.791	29.694
850.813	29.782
850.835	29.773
850.857	29.777
850.879	29.764
850.901	29.795
850.923	29.800
850.945	29.671
850.968	29.745
850.990	29.741
851.012	29.795
851.034	29.777
851.056	29.791
851.078	29.773
851.100	29.773
851.122	29.750
851.144	29.731
851.167	29.754
851.189	29.745
851.211	29.727
851.233	29.841
851.255	29.791
851.277	29.727
851.299	29.805
851.321	29.764
851.343	29.809
851.365	29.717
851.387	29.754
851.409	29.689
851.431	29.768
851.453	29.782
851.476	29.694
851.498	29.722
851.520	29.685
851.542	29.768
851.564	29.791
851.586	29.795
851.608	29.768
851.630	29.795
851.652	29.791
851.674	29.741
851.696	29.736
851.718	29.703
851.740	29.759
851.762	29.750
851.784	29.777
851.806	29.768
851.828	29.694
851.850	29.722
851.872	29.741
851.894	29.727
851.916	29.818
851.938	30.774
851.960	31.741
851.982	33.021
852.004	34.334
852.026	35.377
852.048	35.702
852.070	35.982
852.092	35.319
852.114	33.883
852.135	32.880
852.157	31.658
852.179	30.504
852.201	30.004
852.223	29.814
852.245	29.818
852.267	29.759
852.289	29.845
852.311	29.759
852.333	29.745
852.355	29.745
852.377	29.722
852.399	29.759
852.421	29.727
852.442	29.764
852.464	29.764
852.486	29.791
852.508	29.754
852.530	29.713
852.552	29.764
852.574	29.805
852.596	29.759
852.618	29.694
852.639	29.773
852.661	29.699
852.683	29.731
852.705	29.754
852.727	30.154
852.749	31.474
852.771	32.853
852.792	34.121
852.814	35.355
852.836	35.631
852.858	34.382
852.880	33.398
852.902	32.092
852.924	30.641
852.945	30.039
852.967	29.859
852.989	29.750
853.011	29.694
853.033	29.741
853.055	29.818
853.076	29.791
853.098	29.809
853.120	29.841
853.142	29.814
853.164	29.745
853.185	29.845
853.207	29.827
853.229	29.814
853.251	29.845
853.272	29.731
853.294	29.754
853.316	29.736
853.338	29.791
853.360	29.745
853.381	29.786
853.403	29.703
853.425	29.694
853.447	29.754
853.468	29.768
853.490	29.759
853.512	29.759
853.534	29.741
853.555	29.827
853.577	29.745
853.599	29.782
853.620	29.782
853.642	29.782
853.664	29.741
853.686	29.809
853.707	29.727
853.729	29.754
853.751	29.764
853.773	29.795
853.794	29.741
853.816	29.786
853.838	29.773
853.859	29.741
853.881	29.689
853.903	29.727
853.924	29.791
853.946	29.717
853.968	29.699
853.989	29.773
854.011	29.764
854.033	29.741
854.054	29.795
854.076	29.759
854.098	29.795
854.119	29.773
854.141	29.699
854.163	29.745
854.184	29.823
854.206	29.832
854.228	29.827
854.249	29.800
854.271	29.786
854.292	29.727
854.314	29.777
854.336	29.832
854.357	29.666
854.379	29.671
854.401	29.741
854.422	29.689
854.444	29.741
854.465	29.782
854.487	29.745
854.509	29.736
854.530	29.671
854.552	29.745
854.573	29.768
854.595	29.722
854.617	29.741
854.638	29.773
854.660	29.731
854.681	29.727
854.703	29.754
854.724	29.768
854.746	29.764
854.767	29.643
854.789	29.791
854.811	29.713
854.832	29.741
854.854	29.777
854.875	29.791
854.897	29.809
854.918	29.736
854.940	29.741
854.961	29.703
854.983	29.731
855.004	29.759
855.026	29.773
855.047	29.731
855.069	29.741
855.090	29.657
855.112	29.777
855.133	29.759
855.155	29.800
855.176	29.863
855.198	29.768
855.219	29.699
855.241	29.628
855.262	29.708
855.284	29.754
855.305	29.745
855.327	29.703
855.348	29.786
855.370	29.750
855.391	29.703
855.413	29.818
855.434	29.731
855.456	29.694
855.477	29.713
855.498	29.795
855.520	29.703
855.541	29.671
855.563	29.773
855.584	29.764
855.606	29.800
855.627	29.764
855.648	29.759
855.670	29.647
855.691	29.764
855.713	29.745
855.734	29.745
855.755	29.773
855.777	29.727
855.798	29.768
855.820	29.759
855.841	29.741
855.862	29.689
855.884	29.745
855.905	29.768
855.927	29.717
855.948	29.777
855.969	29.764
855.991	29.773
856.012	29.703
856.033	29.773
856.055	29.814
856.076	29.777
856.098	29.782
856.119	29.661
856.140	29.717
856.162	29.713
856.183	29.759
856.204	29.823
856.226	29.680
856.247	29.685
856.268	29.666
856.290	29.745
856.311	29.736
856.332	29.818
856.354	29.827
856.375	29.768
856.396	29.845
856.417	29.791
856.439	29.777
856.460	29.823
856.481	29.754
856.503	29.773
856.524	29.689
856.545	29.754
856.566	29.736
856.588	29.773
856.609	29.703
856.630	29.823
856.652	29.750
856.673	29.713
856.694	29.754
856.715	29.759
856.737	29.722
856.758	29.754
856.779	29.745
856.800	29.736
856.822	29.745
856.843	29.741
856.864	29.745
856.885	29.680
856.907	29.741
856.928	29.809
856.949	29.777
856.970	29.727
856.991	29.773
857.013	29.795
857.034	29.786
857.055	29.814
