Wavelength (nm)	Rel. spec. intensity (dB)
847.023	29.872
847.046	29.818
847.069	29.854
847.092	29.845
847.114	29.863
847.137	29.814
847.160	29.814
847.182	29.759
847.205	29.863
847.228	29.805
847.250	29.782
847.273	29.782
847.296	29.881
847.318	29.877
847.341	29.818
847.364	29.809
847.386	29.814
847.409	29.894
847.432	29.868
847.454	29.836
847.477	29.841
847.499	29.722
847.522	29.850
847.545	29.795
847.567	29.850
847.590	29.832
847.613	29.754
847.635	29.850
847.658	29.921
847.680	29.890
847.703	29.814
847.726	29.832
847.748	29.877
847.771	29.764
847.793	29.827
847.816	29.877
847.839	29.863
847.861	29.759
847.884	29.948
847.906	29.943
847.929	29.872
847.951	29.823
847.974	29.827
847.996	29.832
848.019	29.791
848.042	29.854
848.064	29.890
848.087	29.894
848.109	29.859
848.132	29.845
848.154	29.836
848.177	29.886
848.199	29.841
848.222	29.777
848.244	29.832
848.267	29.836
848.289	29.836
848.312	29.764
848.334	29.809
848.357	29.841
848.379	29.805
848.402	29.827
848.424	29.805
848.447	29.859
848.469	29.823
848.492	29.800
848.514	29.818
848.537	29.877
848.559	29.814
848.582	29.800
848.604	29.809
848.627	29.850
848.649	29.863
848.672	29.791
848.694	29.912
848.717	29.917
848.739	29.877
848.761	29.818
848.784	29.850
848.806	29.782
848.829	29.800
848.851	29.805
848.874	29.759
848.896	29.795
848.919	29.854
848.941	29.795
848.963	29.854
848.986	29.809
849.008	29.899
849.031	29.782
849.053	29.791
849.075	29.890
849.098	29.868
849.120	29.845
849.143	29.800
849.165	29.827
849.187	29.899
849.210	29.832
849.232	29.827
849.254	29.727
849.277	29.768
849.299	29.859
849.322	29.827
849.344	29.859
849.366	29.754
849.389	29.845
849.411	29.872
849.433	29.823
849.456	29.868
849.478	29.841
849.500	29.805
849.523	29.795
849.545	29.832
849.567	29.800
849.590	29.850
849.612	29.832
849.634	29.814
849.657	29.782
849.679	29.845
849.701	29.894
849.724	29.899
849.746	29.886
849.768	29.768
849.791	29.741
849.813	29.782
849.835	29.805
849.857	29.832
849.880	29.859
849.902	29.926
849.924	29.845
849.946	29.890
849.969	29.917
849.991	29.926
850.013	29.863
850.036	29.836
850.058	29.768
850.080	29.827
850.102	29.845
850.125	29.823
850.147	29.908
850.169	29.827
850.191	29.886
850.214	29.917
850.236	29.836
850.258	29.903
850.280	29.827
850.302	29.805
850.325	29.791
850.347	29.795
850.369	29.805
850.391	29.881
850.414	29.868
850.436	29.917
850.458	29.894
850.480	29.841
850.502	29.832
850.524	29.818
850.547	29.863
850.569	29.841
850.591	29.791
850.613	29.809
850.635	29.877
850.658	29.863
850.680	29.777
850.702	29.764
850.724	29.814
850.746	29.841
850.768	29.841
850.791	29.805
850.813	29.823
850.835	29.827
850.857	29.881
850.879	29.782
850.901	29.750
850.923	29.863
850.945	29.921
850.968	30.133
850.990	30.648
851.012	31.143
851.034	31.872
851.056	32.545
851.078	32.074
851.100	30.752
851.122	30.216
851.144	29.974
851.167	29.948
851.189	29.832
851.211	29.877
851.233	29.917
851.255	29.841
851.277	29.805
851.299	29.841
851.321	29.868
851.343	29.841
851.365	29.894
851.387	29.832
851.409	29.903
851.431	29.912
851.453	29.934
851.476	29.863
851.498	29.832
851.520	29.859
851.542	29.863
851.564	29.859
851.586	29.886
851.608	29.791
851.630	29.814
851.652	29.836
851.674	29.881
851.696	29.881
851.718	29.912
851.740	29.841
851.762	29.881
851.784	29.859
851.806	30.515
851.828	31.348
851.850	32.383
851.872	33.577
851.894	35.004
851.916	36.442
851.938	37.417
851.960	37.796
851.982	37.828
852.004	38.299
852.026	37.592
852.048	35.586
852.070	34.191
852.092	32.762
852.114	31.310
852.135	30.402
852.157	30.017
852.179	29.903
852.201	29.872
852.223	29.917
852.245	29.926
852.267	29.908
852.289	29.917
852.311	29.823
852.333	29.886
852.355	29.930
852.377	29.841
852.399	29.908
852.421	29.854
852.442	29.863
852.464	29.841
852.486	29.877
852.508	29.872
852.530	29.841
852.552	29.823
852.574	29.859
852.596	29.841
852.618	29.814
852.639	29.836
852.661	29.886
852.683	29.809
852.705	29.859
852.727	30.026
852.749	30.484
852.771	31.504
852.792	32.276
852.814	33.176
852.836	34.118
852.858	34.094
852.880	32.751
852.902	31.183
852.924	30.175
852.945	29.894
852.967	29.836
852.989	29.917
853.011	29.877
853.033	29.872
853.055	29.845
853.076	29.809
853.098	29.868
853.120	29.827
853.142	29.881
853.164	29.850
853.185	29.899
853.207	29.881
853.229	29.863
853.251	29.912
853.272	29.908
853.294	29.845
853.316	29.836
853.338	29.845
853.360	29.791
853.381	29.854
853.403	29.886
853.425	29.854
853.447	29.836
853.468	29.850
853.490	29.827
853.512	29.782
853.534	29.894
853.555	29.859
853.577	29.881
853.599	29.877
853.620	29.868
853.642	29.777
853.664	29.818
853.686	29.786
853.707	29.827
853.729	29.814
853.751	29.881
853.773	29.814
853.794	29.845
853.816	29.832
853.838	29.903
853.859	29.859
853.881	29.850
853.903	29.886
853.924	29.836
853.946	29.809
853.968	29.841
853.989	29.881
854.011	29.800
854.033	29.754
854.054	29.868
854.076	29.877
854.098	29.868
854.119	29.786
854.141	29.863
854.163	29.859
854.184	29.814
854.206	29.859
854.228	29.782
854.249	29.854
854.271	29.854
854.292	29.881
854.314	29.809
854.336	29.708
854.357	29.863
854.379	29.890
854.401	29.814
854.422	29.782
854.444	29.773
854.465	29.859
854.487	29.768
854.509	29.850
854.530	29.845
854.552	29.832
854.573	29.809
854.595	29.908
854.617	29.872
854.638	29.845
854.660	29.868
854.681	29.841
854.703	29.823
854.724	29.805
854.746	29.823
854.767	29.786
854.789	29.868
854.811	29.818
854.832	29.836
854.854	29.836
854.875	29.818
854.897	29.832
854.918	29.836
854.940	29.814
854.961	29.782
854.983	29.805
855.004	29.859
855.026	29.903
855.047	29.850
855.069	29.854
855.090	29.836
855.112	29.872
855.133	29.872
855.155	29.809
855.176	29.814
855.198	29.800
855.219	29.836
855.241	29.823
855.262	29.782
855.284	29.850
855.305	29.877
855.327	29.863
855.348	29.850
855.370	29.877
855.391	29.805
855.413	29.841
855.434	29.814
855.456	29.768
855.477	29.800
855.498	29.859
855.520	29.805
855.541	29.805
855.563	29.894
855.584	29.809
855.606	29.786
855.627	29.850
855.648	29.845
855.670	29.836
855.691	29.854
855.713	29.823
855.734	29.809
855.755	29.791
855.777	29.877
855.798	29.877
855.820	29.881
855.841	29.894
855.862	29.854
855.884	29.845
855.905	29.836
855.927	29.809
855.948	29.795
855.969	29.845
855.991	29.827
856.012	29.854
856.033	29.845
856.055	29.836
856.076	29.868
856.098	29.827
856.119	29.854
856.140	29.745
856.162	29.809
856.183	29.795
856.204	29.814
856.226	29.845
856.247	29.795
856.268	29.827
856.290	29.786
856.311	29.836
856.332	29.800
856.354	29.859
856.375	29.872
856.396	29.814
856.417	29.872
856.439	29.800
856.460	29.894
856.481	29.782
856.503	29.809
856.524	29.818
856.545	29.814
856.566	29.827
856.588	29.800
856.609	29.786
856.630	29.854
856.652	29.773
856.673	29.845
856.694	29.836
856.715	29.850
856.737	29.818
856.758	29.800
856.779	29.814
856.800	29.805
856.822	29.863
856.843	29.768
856.864	29.863
856.885	29.881
856.907	29.863
856.928	29.845
856.949	29.845
856.970	29.827
856.991	29.863
